2176,2071,2052,2055,0000
2156,2059,2058,2048,0000
1884,2056,2039,2048,0000
2071,2048,2046,2039,0000
2206,2043,1975,1998,0000
1929,2063,2037,2061,0000
1997,2066,2042,2054,0000
2208,2044,2024,2034,0000
2009,2047,2049,2052,0000
1935,2083,2083,2081,0000
2227,2101,2061,2071,0000
2101,2074,2051,2060,0000
1911,2065,2051,2064,0000
2127,2062,2045,2045,0000
2154,2055,2039,2049,0000
1905,2044,2018,2011,0000
2051,2053,2071,2083,0000
2192,2053,2027,2048,0000
1986,2073,2049,2062,0000
1990,2070,2047,2065,0000
2185,2056,2039,2037,0000
2022,2055,2037,2055,0000
1939,2060,2040,2053,0000
2160,2057,2047,2039,0000
2097,2061,2051,2061,0000
1910,2046,2028,2038,0000
2098,2051,2049,2064,0000
2169,2063,2045,2057,0000
1948,2070,2045,2062,0000
2018,2042,2018,2038,0000
2192,2062,2034,2041,0000
1965,2049,2044,2048,0000
1972,2057,2049,2054,0000
2198,2065,2058,2054,0000
2043,2060,2054,2064,0000
1936,2058,2054,2053,0000
2148,2054,2050,2048,0000
2101,2044,2040,2043,0000
1963,2103,2081,2077,0000
2102,2064,2051,2053,0000
2181,2066,2056,2057,0000
1961,2071,2052,2059,0000
2020,2060,2058,2067,0000
2197,2065,2052,2057,0000
2010,2063,2051,2057,0000
1955,2038,2031,2033,0000
2182,2051,2061,2074,0000
2065,2066,2048,2054,0000
1915,2048,2035,2042,0000
2138,2094,2028,2038,0000
2138,2064,2064,2054,0000
1914,2044,2036,2022,0000
2084,2054,2033,2032,0000
2188,2085,2075,2081,0000
1975,2085,2070,2093,0001
2013,2048,2020,2032,0001
2183,2051,2045,2058,0001
2013,2046,2041,2052,0001
1949,2050,2041,2052,0001
2193,2088,2067,2075,0002
2105,2077,2069,2070,0002
1922,2069,2045,2047,0002
2114,2056,2040,2054,0003
2128,2047,2044,2052,0003
1940,2067,2045,2058,0003
2059,2059,2036,2045,0004
2173,2054,2049,2045,0004
1970,2052,2036,2037,0004
1976,2043,2025,2015,0004
2186,2068,2059,2068,0005
2041,2060,2059,2071,0005
1944,2058,2051,2072,0005
2152,2048,2037,2047,0005
2088,2068,2036,2064,0005
1928,2050,2051,2047,0005
2084,2055,2037,2041,0006
2164,2071,2052,2051,0006
1937,2058,2027,2014,0006
2015,2048,2042,2047,0006
2172,2047,1993,2002,0006
1975,2030,2064,2086,0006
1942,2030,1994,2022,0006
2123,2005,1996,2009,0007
1999,1999,1940,1963,0007
1856,1980,1977,1990,0007
2058,2001,1960,1953,0008
2016,1962,1947,1950,0008
1846,1979,1968,1965,0008
2000,1982,1970,1984,0008
2108,1999,1985,1998,0009
1944,2064,2040,2047,0009
2031,2074,2080,2043,0009
2213,2089,2083,2088,0009
2072,2120,2095,2107,0009
2026,2120,2119,2122,0009
2245,2137,2133,2145,0009
2169,2143,2146,2163,0009
2059,2158,2151,2152,0009
2239,2189,2166,2187,0009
2238,2199,2159,2162,0009
2031,2151,2124,2112,0009
2128,2120,2121,2127,0009
2209,2083,2088,2096,0009
1999,2107,2073,2068,0009
1996,2054,2031,2042,0009
2178,2072,2040,2041,0009
2008,2038,2019,2027,0009
1935,2036,2035,2033,0009
2168,2059,2042,2048,0009
2096,2023,2036,2045,0010
1944,2086,2050,2064,0010
2097,2043,2034,2055,0011
2153,2095,2054,2056,0011
1952,2068,2047,2049,0012
2055,2069,2047,2054,0012
2179,2086,2050,2079,0013
1965,2048,2044,2061,0013
1998,2063,2038,2066,0014
2163,2053,2021,2031,0014
2052,2063,2052,2047,0014
1938,2034,2032,2034,0014
2113,2047,2032,2041,0014
2067,2020,2012,2014,0014
1942,2058,2049,2050,0014
2084,2048,2030,2035,0014
2153,2064,2015,2041,0014
1960,2061,2060,2055,0014
2037,2066,2052,2060,0014
2158,2034,2032,2028,0014
2029,2084,2074,2087,0014
1964,2043,2037,2054,0014
2181,2076,2057,2067,0014
2044,2045,2033,2030,0014
1931,2047,2055,2061,0014
2084,2015,1988,2002,0014
2086,2015,2003,2024,0015
1905,1991,2008,2005,0015
2047,2062,2021,2023,0016
2174,2078,2060,2074,0016
1985,2100,2051,2068,0017
2005,2049,2039,2039,0018
2162,2029,2041,2056,0019
2005,2045,2043,2054,0019
1964,2064,2044,2064,0020
2180,2082,2071,2070,0021
2122,2122,2087,2089,0021
2005,2136,2125,2129,0022
2200,2146,2144,2149,0022
2247,2156,2157,2163,0022
1993,2104,2111,2106,0022
2096,2089,2081,2085,0022
2157,2038,2043,2041,0022
1923,2019,1999,1994,0022
1950,2023,2009,2013,0022
2130,2022,2018,2022,0022
2029,2067,2039,2037,0022
1969,2065,2035,2033,0022
2174,2061,2049,2071,0022
2087,2059,2036,2050,0022
1900,2029,2002,2015,0022
2043,2019,1994,1986,0022
2068,1967,1978,1973,0022
1878,2000,1965,1966,0022
2007,2015,2008,2006,0022
2171,2056,2045,2073,0022
2003,2062,2042,2062,0021
2004,2056,2067,2072,0021
2206,2094,2052,2041,0021
2081,2084,2081,2087,0020
1980,2102,2084,2108,0020
2134,2056,2037,2046,0019
2070,2014,1983,1990,0018
1866,1988,1977,1983,0017
1999,1979,1945,1921,0016
2101,2007,2015,2001,0014
1888,1987,1991,2021,0013
1957,1998,1947,1992,0011
2120,2013,1979,2001,0009
1962,2015,1974,1953,0007
1933,2021,2048,2038,0004
2151,2036,2012,2017,0002
2063,2054,2055,2013,0000
1967,2084,2097,2143,0000
2156,2078,2072,2093,0000
2154,2081,2047,2106,0000
1957,2082,2075,2061,0000
2078,2079,2055,2041,0000
2198,2089,2055,2109,0000
2006,2086,2069,2093,0000
2018,2055,2071,2059,0000
2262,2152,2132,2142,0000
2108,2159,2127,2128,0000
2039,2129,2140,2131,0000
2270,2168,2164,2141,0000
2202,2192,2234,2266,0000
2015,2159,2118,2129,0000
2194,2138,2132,2135,0000
2204,2122,2101,2098,0000
1944,2074,2069,2060,0000
2004,2020,1999,2007,0000
2085,1962,1953,1952,0000
1814,1906,1905,1901,0000
1843,1918,1886,1877,0000
2026,1894,1849,1823,0000
1904,1930,1939,1979,0000
1790,1900,1894,1912,0000
2007,1927,1895,1921,0000
1978,1945,1941,1967,0000
1875,2007,1972,1971,0000
2025,1982,1956,1981,0000
2135,2024,2002,1996,0000
1893,1997,2040,2033,0000
1976,1999,1985,1997,0000
2184,2071,2037,2082,0000
1969,2041,2010,2019,0000
1998,2090,2086,2107,0000
2256,2122,2115,2127,0000
2115,2125,2092,2109,0000
1968,2103,2088,2096,0000
2192,2085,2071,2087,0000
2152,2077,2079,2087,0000
1942,2076,2072,2071,0000
2111,2064,2071,2066,0000
2212,2101,2067,2073,0000
1971,2100,2096,2100,0000
2058,2099,2066,2080,0000
2228,2091,2068,2064,0000
2034,2086,2062,2062,0000
1990,2111,2103,2121,0000
2221,2088,2061,2055,0000
2103,2086,2054,2077,0000
1959,2108,2160,2158,0000
2167,2087,2036,2041,0000
2184,2095,2100,2125,0000
1931,2068,2046,2049,0000
2066,2066,2065,2068,0000
2189,2062,2045,2046,0000
1983,2075,2053,2065,0000
2030,2089,2052,2011,0000
2243,2110,2107,2098,0000
2057,2095,2029,2041,0000
1986,2093,2116,2143,0000
2212,2096,2048,2103,0000
2116,2092,2111,2088,0000
1936,2068,1987,1987,0000
2160,2090,2003,2039,0000
2162,2083,2094,2132,0000
1940,2063,1998,2016,0000
2061,2070,2100,2097,0000
2193,2068,2037,2025,0000
1972,2056,2060,2077,0000
1992,2064,2046,2078,0000
2198,2062,2047,2061,0000
2033,2067,2068,2077,0000
1933,2052,2051,2047,0000
2132,2031,2034,2018,0000
2107,2060,2062,2039,0000
1894,2029,2044,2046,0000
2097,2058,2040,2036,0000
2147,2053,2049,2048,0000
1905,2060,2031,2019,0000
2003,2016,1989,1966,0000
2192,2047,2050,2088,0000
1970,2056,2015,2035,0000
1957,2057,2044,2061,0000
2198,2069,2042,2070,0000
2048,2059,2047,2048,0000
1906,2042,2037,2042,0000
2142,2034,2026,2025,0000
2106,2023,2023,2030,0000
1874,2038,2002,2010,0000
2070,2041,2024,2031,0000
2183,2070,2039,2045,0000
1918,2038,2036,2031,0000
2010,2050,2050,2053,0000
2231,2072,2053,2045,0000
1990,2065,2067,2074,0000
1951,2060,2023,2043,0000
2181,2055,2040,2050,0000
2067,2057,2054,2064,0000
1908,2061,2022,2039,0000
2151,2063,2035,2040,0000
2128,2048,2002,2022,0000
1900,2047,2030,2054,0000
2063,2051,2051,2062,0000
2193,2063,2041,2082,0000
1950,2059,2042,2052,0000
1997,2060,2039,2062,0000
2202,2065,2052,2057,0000
2022,2072,2069,2070,0000
1943,2056,2048,2063,0000
2170,2055,2050,2047,0000
2081,2070,2055,2059,0000
1915,2059,2056,2052,0000
2114,2058,2063,2062,0000
2151,2060,2036,2030,0000
1938,2086,2086,2087,0000
2063,2049,2019,2019,0000
2206,2076,2106,2095,0000
1990,2079,2037,2037,0000
1973,2062,2018,2044,0000
2209,2076,2046,2058,0000
2041,2063,2056,2035,0000
1926,2060,2053,2055,0000
2165,2064,2037,2066,0000
2112,2060,2046,2068,0000
1912,2055,2055,2049,0000
2093,2053,2039,2032,0000
2171,2057,2037,2060,0000
1919,2048,2012,1998,0000
2065,2077,2080,2082,0000
2222,2089,2058,2059,0000
1993,2091,2062,2082,0000
1931,2024,1992,2004,0000
2129,1999,1959,1955,0000
1962,1980,1970,1984,0000
1817,1974,1956,1957,0000
2094,1998,2000,1995,0000
2072,2002,2020,2045,0000
1849,2005,2004,2024,0000
2072,2031,2019,2030,0000
2169,2036,2000,2014,0000
1911,2043,2046,2064,0000
2017,2064,2025,2028,0000
2229,2087,2104,2104,0000
2011,2084,2044,2056,0000
1954,2077,2083,2068,0000
2213,2072,2044,2070,0000
2096,2070,2029,2045,0000
1930,2091,2072,2094,0000
2155,2067,2071,2080,0000
2154,2052,2060,2053,0000
1919,2060,2072,2062,0000
2053,2045,2030,2045,0000
2179,2039,2017,2002,0000
1942,2053,2052,2080,0000
1989,2067,2075,2059,0000
2223,2064,2074,2080,0000
2032,2064,2037,2044,0000
1925,2055,2048,2052,0000
2196,2072,2088,2091,0000
2105,2068,2035,2044,0000
1903,2060,2044,2030,0000
2137,2070,2048,2051,0000
2180,2067,2076,2070,0000
1930,2065,2053,2064,0000
2054,2070,2060,2077,0000
2211,2071,2053,2060,0000
1964,2064,2082,2090,0000
1982,2068,2065,2031,0000
2214,2063,2075,2104,0000
2058,2077,2047,2063,0000
1928,2063,2029,2050,0000
2171,2080,2058,2076,0000
2108,2044,2046,2038,0000
1916,2064,2054,2062,0000
2089,2072,2037,2030,0000
2177,2068,2050,2021,0000
1935,2064,2050,2066,0000
2023,2057,2050,2070,0000
2223,2074,2055,2076,0000
1989,2064,2027,2013,0000
1934,2035,1985,1979,0000
2198,2064,2032,2056,0000
2068,2063,2044,2057,0000
1912,2052,2029,2049,0000
2159,2059,2058,2066,0000
2144,2070,2039,2035,0000
1922,2085,2089,2082,0000
2087,2053,2016,2004,0000
2199,2068,2022,2023,0000
1938,2058,2009,2040,0000
1987,2048,2027,2044,0000
2184,2040,2003,2014,0000
2016,2066,2061,2053,0000
1948,2064,2047,2058,0000
2195,2050,2041,2048,0000
2088,2052,2053,2045,0000
1897,2046,2037,2033,0000
2134,2052,2040,2037,0000
2156,2053,2028,2030,0000
1911,2061,2074,2070,0000
2071,2075,2112,2130,0000
2224,2067,2038,2068,0000
1945,2056,2050,2070,0000
1976,2052,2039,2043,0000
2213,2063,2042,2051,0000
2017,2057,2039,2049,0000
1918,2054,2045,2049,0000
2170,2053,2046,2046,0000
2103,2056,2052,2063,0000
1902,2060,2050,2052,0000
2116,2052,2047,2051,0000
2158,2045,2041,2045,0000
1908,2059,2077,2074,0000
2039,2051,2068,2051,0000
2224,2066,2050,2063,0000
1988,2071,2036,2055,0000
1961,2063,2036,2061,0000
2210,2091,2050,2065,0000
2047,2064,2049,2045,0000
1912,2056,2033,2019,0000
2165,2063,2060,2071,0000
2120,2056,2031,2044,0000
1904,2058,2036,2040,0000
2090,2047,2046,2044,0000
2179,2056,2050,2041,0000
1931,2062,2045,2061,0000
2028,2054,2048,2062,0000
2212,2072,2050,2086,0000
1994,2066,2042,2044,0000
1927,2043,2023,2016,0000
2197,2064,2096,2097,0000
2069,2063,2049,2054,0000
1914,2063,2037,2055,0000
2134,2060,2043,2040,0000
2175,2080,2040,2057,0000
1887,2034,2010,1983,0000
2095,2085,2067,2061,0000
2208,2068,2054,2079,0000
1936,2053,2040,2050,0000
1987,2056,2052,2052,0000
2203,2051,2022,2046,0000
2013,2067,2054,2091,0000
1926,2057,2034,2035,0000
2194,2068,2066,2057,0000
2096,2052,2025,2006,0000
1892,2055,2037,2035,0000
2125,2049,2025,2042,0000
2169,2076,2090,2120,0000
1896,2053,2036,2062,0000
2054,2054,2052,2079,0000
2214,2074,2032,2037,0000
1957,2061,2046,2025,0000
1961,2052,2069,2078,0000
2227,2066,2072,2062,0000
2033,2074,2081,2079,0000
1917,2060,2029,2015,0000
2220,2093,2048,2057,0000
2117,2070,2057,2092,0000
1901,2063,2013,2036,0000
2113,2043,2036,2034,0000
2174,2055,2076,2080,0000
1919,2059,2035,2060,0000
2029,2050,2016,2048,0000
2208,2046,2019,2023,0000
1950,2052,2031,2034,0000
1939,2054,2028,2043,0000
2197,2050,2037,2041,0000
2040,2047,2041,2040,0000
1892,2042,2041,2041,0000
2167,2060,2048,2057,0000
2124,2053,2050,2050,0000
1902,2066,2061,2077,0000
2090,2053,2049,2066,0000
2192,2060,2047,2054,0000
1930,2057,2041,2050,0000
2015,2062,2046,2049,0000
2183,2027,2019,2028,0000
2015,2071,2055,2050,0000
1931,2048,2026,2017,0000
2218,2078,2049,2062,0000
2097,2077,2056,2076,0000
1907,2060,2060,2077,0000
2160,2075,2049,2055,0000
2153,2064,2045,2054,0000
1887,2048,2030,2036,0000
2066,2058,2038,2041,0000
2208,2064,2054,2063,0000
1944,2055,2039,2048,0000
1992,2059,2047,2052,0000
2188,2044,2026,2035,0000
2028,2082,2063,2060,0000
1947,2068,2061,2050,0000
2196,2066,2087,2071,0000
2110,2080,2060,2067,0000
1889,2041,2016,2006,0000
2128,2058,2081,2107,0000
2166,2064,2037,2060,0000
1907,2060,2058,2102,0000
2045,2062,2035,2051,0000
2204,2058,2045,2032,0000
1957,2060,2056,2055,0000
1973,2058,2048,2055,0000
2210,2056,2050,2042,0000
2028,2058,2050,2043,0000
1917,2063,2065,2055,0000
2185,2062,2060,2085,0000
2114,2066,2020,2031,0000
1891,2048,2017,2007,0000
2124,2069,2048,2039,0000
2173,2057,2044,2055,0000
1925,2068,2043,2030,0000
2035,2057,2041,2063,0000
2211,2056,2045,2051,0000
1966,2050,2041,2055,0000
1976,2068,2046,2057,0000
2202,2052,2059,2056,0000
2065,2075,2046,2038,0000
1916,2064,2067,2064,0000
2167,2067,2039,2041,0000
2143,2068,2052,2071,0000
1894,2079,2039,2047,0000
2078,2046,2031,2024,0000
2207,2070,2083,2081,0000
1918,2050,2073,2093,0000
2007,2051,2051,2060,0000
2203,2053,2035,2041,0000
1990,2055,2058,2053,0000
1938,2058,2059,2063,0000
2207,2063,2038,2039,0000
2081,2059,2038,2050,0000
1893,2047,2030,2046,0000
2135,2050,2046,2048,0000
2150,2060,2044,2025,0000
1894,2044,2011,1973,0000
2066,2064,2064,2057,0000
2191,2059,2037,2060,0000
1952,2062,2049,2074,0000
1983,2051,2005,2024,0000
2214,2055,2045,2045,0000
2014,2060,2029,2057,0000
1925,2064,2034,2036,0000
2170,2046,2022,2031,0000
2120,2080,2058,2067,0000
1886,2053,2037,2051,0000
2120,2056,2034,2038,0000
2166,2055,2052,2072,0000
1923,2063,2058,2056,0000
2044,2061,2040,2038,0000
2210,2064,2058,2065,0000
1952,2056,2043,2043,0000
1956,2054,2026,2033,0000
2210,2063,2038,2036,0000
2039,2066,2061,2074,0000
1908,2054,2029,2051,0000
2168,2062,2045,2049,0000
2116,2058,2055,2062,0000
1904,2062,2043,2046,0000
2096,2058,2035,2043,0000
2178,2064,2044,2044,0000
1920,2060,2051,2048,0000
2026,2066,2058,2063,0000
2226,2075,2065,2074,0000
1960,2034,2021,2011,0000
1959,2063,2059,2092,0000
2209,2064,2046,2073,0000
2061,2066,2034,2069,0000
1901,2043,2045,2049,0000
2161,2059,2042,2040,0000
2141,2072,2043,2047,0000
1929,2079,2050,2057,0000
2102,2069,2066,2057,0000
2218,2087,2076,2074,0000
1956,2084,2065,2060,0000
2009,2065,2051,2050,0000
2229,2062,2055,2054,0000
2012,2074,2059,2068,0000
1937,2064,2046,2048,0000
2205,2063,2047,2061,0000
2057,2026,2024,2038,0000
1877,2037,2017,2031,0000
2125,2046,2042,2049,0000
2153,2057,2027,2019,0000
1884,2039,2040,2021,0000
2037,2039,2023,2040,0000
2224,2064,2030,2051,0000
1939,2061,2062,2059,0000
1979,2054,2038,2039,0000
2226,2068,2043,2056,0000
2004,2051,2031,2051,0000
1913,2055,2043,2046,0000
2183,2057,2045,2038,0000
2104,2066,2056,2050,0000
1887,2054,2045,2044,0000
2115,2050,2048,2021,0000
2172,2051,2041,2058,0000
1897,2052,2055,2051,0000
2029,2050,2038,2037,0000
2211,2051,2053,2044,0000
1967,2056,2039,2044,0000
1956,2048,2056,2074,0000
2208,2056,2039,2060,0000
2042,2058,2032,2052,0000
1900,2054,2057,2074,0000
2172,2064,2043,2045,0000
2122,2062,2048,2063,0000
1893,2061,2050,2039,0000
2098,2060,2033,2059,0000
2189,2071,2035,2051,0000
1917,2063,2046,2067,0000
2024,2061,2056,2058,0000
2219,2062,2052,2056,0000
1996,2071,2055,2050,0000
1953,2063,2060,2062,0000
2215,2068,2053,2063,0000
2057,2055,2041,2042,0000
1883,2036,2041,2036,0000
2150,2045,2031,2029,0000
2131,2056,2054,2060,0000
1889,2049,2042,2048,0000
2082,2057,2037,2038,0000
2197,2064,2059,2059,0000
1921,2059,2054,2063,0000
2002,2058,2042,2045,0000
2217,2064,2048,2063,0000
1990,2053,2047,2045,0000
1922,2038,2064,2065,0000
2205,2062,2033,2036,0000
2074,2068,2043,2051,0000
1903,2066,2041,2081,0000
2141,2056,2038,2053,0000
2163,2068,2061,2067,0000
1911,2055,2057,2034,0000
2041,2039,2028,2027,0000
2229,2080,2090,2079,0000
1950,2066,2047,2043,0000
1989,2066,2051,2053,0000
2219,2063,2045,2051,0000
2031,2072,2070,2076,0000
1919,2058,2066,2064,0000
2182,2049,2048,2041,0000
2094,2055,2023,2046,0000
1888,2053,2038,2044,0000
2114,2070,2046,2039,0000
2179,2075,2059,2058,0000
1910,2064,2074,2082,0000
2037,2057,1999,2027,0000
2208,2061,2042,2045,0000
1965,2064,2033,2040,0000
1958,2051,2051,2068,0000
2210,2059,2056,2051,0000
2066,2073,2052,2054,0000
1912,2049,2042,2050,0000
2167,2066,2050,2064,0000
2130,2067,2050,2058,0000
1893,2051,2046,2048,0000
2098,2060,2046,2033,0000
2191,2072,2073,2086,0000
1928,2058,2032,2036,0000
2038,2078,2075,2087,0000
2202,2052,1997,2002,0000
1984,2060,2043,2072,0000
1932,2041,1991,2006,0000
2202,2060,2045,2052,0000
2066,2065,2070,2063,0000
1900,2049,2051,2057,0000
2140,2040,2037,2052,0000
2133,2047,2031,2048,0000
1903,2060,2045,2041,0000
2066,2048,2023,2028,0000
2204,2061,2057,2074,0000
1940,2061,2036,2037,0000
1989,2054,2045,2057,0000
2220,2061,2048,2068,0000
2013,2060,2058,2045,0000
1922,2051,2057,2064,0000
2210,2077,2044,2054,0000
2082,2058,2007,2021,0000
1902,2062,2029,2028,0000
2142,2062,2031,2017,0000
2168,2068,2066,2095,0000
1908,2057,2016,2002,0000
2053,2050,2045,2082,0000
2221,2070,2048,2057,0000
1942,2064,2032,2057,0000
1978,2055,2052,2058,0000
2214,2057,2038,2033,0000
2024,2052,2054,2066,0000
1906,2045,2023,2025,0000
2189,2062,2047,2050,0000
2107,2057,2041,2040,0000
1897,2060,2039,2051,0000
2118,2066,2046,2047,0000
2185,2067,2058,2068,0000
1901,2068,2037,2028,0000
2029,2055,2037,2041,0000
2202,2062,2055,2023,0000
1986,2072,2066,2085,0000
1972,2059,2037,2044,0000
2214,2066,2044,2067,0000
2040,2056,2039,2047,0000
1911,2063,2053,2057,0000
2171,2079,2050,2074,0000
2132,2056,2030,2052,0000
1893,2055,2047,2044,0000
2101,2060,2048,2051,0000
2198,2066,2051,2062,0000
1926,2067,2052,2057,0000
2022,2058,2049,2048,0000
2217,2061,2044,2046,0000
1989,2067,2053,2056,0000
1911,2035,2028,2036,0000
2208,2052,2031,2038,0000
2068,2063,2069,2078,0000
1897,2059,2036,2041,0000
2158,2065,2065,2057,0000
2152,2073,2066,2089,0000
1896,2057,2023,2028,0000
2079,2063,2042,2063,0000
2205,2066,2051,2063,0000
1940,2060,2048,2079,0000
2003,2067,2066,2084,0000
2227,2080,2045,2059,0000
2014,2070,2069,2078,0000
1919,2058,2041,2041,0000
2194,2056,2042,2058,0000
2086,2052,2031,2036,0000
1873,2042,2033,2041,0000
2141,2066,2049,2066,0000
2164,2066,2065,2071,0000
1914,2067,2034,2054,0000
2044,2056,2041,2042,0000
2193,2067,2042,2050,0000
1944,2051,2037,2027,0000
1983,2073,2069,2058,0000
2208,2057,2048,2041,0000
2034,2068,2106,2114,0000
1914,2053,2032,2047,0000
2180,2064,2031,2051,0000
2117,2065,2042,2033,0000
1889,2072,2039,2031,0000
2115,2059,2061,2072,0000
2185,2071,2045,2080,0000
1920,2049,2048,2095,0000
2025,2056,2035,2039,0000
2217,2062,2039,2030,0000
1966,2057,2036,2044,0000
1951,2055,2044,2048,0000
2200,2055,2045,2047,0000
2060,2069,2055,2061,0000
1901,2048,2039,2038,0000
2163,2054,2041,2044,0000
2129,2060,2044,2052,0000
1889,2056,2052,2052,0000
2095,2058,2040,2040,0000
2187,2064,2058,2073,0000
1926,2064,2038,2049,0000
2000,2052,2063,2053,0000
2227,2074,2025,2039,0000
1993,2060,2066,2066,0000
1946,2065,2063,2092,0000
2192,2060,2035,2048,0000
2091,2074,2034,2048,0000
1894,2061,2045,2051,0000
2138,2052,2037,2040,0000
2155,2066,2064,2042,0000
1891,2061,2028,2042,0000
2057,2047,2058,2055,0000
2201,2054,2047,2037,0000
1940,2072,2031,2038,0000
1983,2065,2043,2041,0000
2224,2078,2044,2058,0000
2017,2055,2042,2056,0000
1918,2048,2034,2028,0000
2187,2047,2037,2036,0000
2094,2062,2060,2064,0000
1901,2059,2039,2034,0000
2138,2057,2084,2095,0000
2164,2060,2031,2038,0000
1911,2055,2044,2050,0000
2051,2064,2047,2045,0000
2208,2058,2035,2047,0000
1966,2062,2060,2055,0000
1953,2048,2044,2047,0000
2211,2051,2048,2060,0000
2047,2054,2060,2068,0000
1898,2033,2042,2057,0000
2179,2053,2048,2066,0000
2116,2069,2040,2043,0000
1890,2069,2024,2017,0000
2087,2051,2019,2020,0000
2189,2076,2071,2099,0000
1925,2057,2044,2061,0000
2013,2048,2036,2048,0000
2209,2057,2058,2087,0000
1977,2045,2037,2048,0000
1950,2059,2071,2094,0000
2231,2086,2046,2045,0000
2052,2055,2045,2051,0000
1900,2056,2063,2069,0000
2183,2071,2061,2061,0000
2132,2060,2033,2042,0000
1895,2056,2049,2055,0000
2086,2042,2047,2045,0000
2188,2048,2038,2044,0000
1941,2072,2073,2082,0000
1969,2012,2019,2020,0000
2219,2064,2049,2043,0000
2008,2062,2052,2052,0000
1941,2072,2049,2049,0000
2195,2045,2041,2048,0000
2072,2066,2070,2058,0000
1903,2072,2028,2049,0000
2146,2080,2038,2049,0000
2160,2074,2038,2058,0000
1907,2055,2026,2044,0000
2059,2052,2064,2062,0000
2207,2065,2075,2087,0000
1936,2039,2051,2053,0000
1987,2048,2053,2063,0000
2221,2055,2068,2068,0000
2018,2072,2042,2056,0000
1920,2057,2031,2036,0000
2182,2059,2038,2036,0000
2098,2067,2056,2053,0000
1890,2056,2032,2055,0000
2121,2073,2037,2055,0000
2171,2080,2030,2054,0000
1904,2052,2032,2031,0000
2036,2054,2060,2063,0000
2228,2067,2056,2064,0000
1955,2052,2032,2027,0000
1948,2035,2012,2013,0000
2221,2070,2059,2056,0000
2032,2054,2043,2052,0000
1890,2040,2024,2038,0000
2179,2059,2051,2055,0000
2116,2067,2061,2067,0000
1884,2051,2030,2030,0000
2121,2067,2043,2059,0000
2176,2058,2057,2048,0000
1922,2061,2056,2066,0000
2021,2052,2024,2032,0000
2213,2054,2031,2045,0000
1981,2063,2055,2060,0000
1947,2056,2052,2039,0000
2199,2052,2049,2055,0000
2057,2057,2019,2047,0000
1899,2059,2055,2068,0000
2151,2055,2037,2033,0000
2148,2070,2031,2038,0000
1895,2064,2035,2033,0000
2085,2063,2046,2066,0000
2191,2063,2056,2067,0000
1920,2049,2042,2044,0000
1988,2049,2047,2053,0000
2221,2060,2044,2039,0000
2010,2076,2046,2054,0000
1932,2056,2038,2037,0000
2208,2067,2031,2031,0000
2078,2054,2052,2048,0000
1901,2052,2029,2040,0000
2127,2057,2027,2033,0000
2182,2084,2050,2077,0000
1891,2041,2025,2026,0000
2039,2037,2044,2080,0000
2207,2065,2040,2052,0000
1950,2062,2051,2066,0000
1982,2050,2024,2027,0000
2217,2067,2031,2018,0000
2022,2065,2049,2059,0000
1923,2059,2044,2057,0000
2187,2060,2033,2030,0000
2100,2058,2033,2021,0000
1896,2058,2021,2021,0000
2115,2057,2052,2076,0000
2178,2065,2052,2057,0000
1904,2042,2026,2038,0000
2034,2052,2081,2073,0000
2200,2052,2035,2038,0000
1959,2050,2072,2078,0000
1967,2062,2052,2080,0000
2215,2061,2053,2072,0000
2052,2073,2063,2065,0000
1895,2040,2022,2012,0000
2184,2061,2049,2070,0000
2115,2064,2038,2054,0000
1897,2063,2047,2054,0000
2084,2042,2033,2031,0000
2184,2066,2044,2048,0000
1925,2068,2055,2058,0000
2020,2060,2031,2031,0000
2220,2062,2039,2051,0000
1981,2056,2037,2050,0000
1942,2052,2027,2034,0000
2206,2061,2045,2061,0000
2066,2056,2032,2036,0000
1884,2038,2049,2037,0000
2186,2084,2039,2046,0000
2136,2058,2054,2066,0000
1897,2060,2045,2056,0000
2109,2087,2062,2057,0000
2195,2056,2049,2048,0000
1930,2065,2037,2063,0000
2004,2054,2033,2039,0000
2208,2046,2045,2059,0000
1996,2056,2031,2034,0000
1935,2054,2049,2046,0000
2201,2048,2046,2060,0000
2086,2056,2025,2029,0000
1871,2031,2025,2058,0000
2144,2061,2068,2068,0000
2170,2080,2050,2066,0000
1894,2064,2040,2029,0000
2060,2054,2037,2028,0000
2206,2062,2038,2046,0000
1950,2057,2038,2049,0000
1967,2045,2055,2066,0000
2210,2056,2029,2034,0000
2007,2072,2048,2052,0000
1920,2057,2042,2037,0000
2200,2085,2043,2044,0000
2119,2061,2052,2050,0000
1895,2044,2061,2063,0000
2119,2067,2044,2031,0000
2184,2070,2033,2029,0000
1915,2069,2057,2071,0000
2028,2062,2022,2049,0000
2209,2050,2037,2045,0000
1971,2062,2051,2074,0000
1950,2050,2046,2034,0000
2224,2038,2045,2070,0000
2072,2067,2063,2075,0000
1892,2055,2017,2030,0000
2164,2076,2054,2066,0000
2109,2048,2042,2052,0000
1888,2057,2022,2023,0000
2090,2069,2079,2085,0000
2189,2077,2042,2042,0000
1931,2078,2031,2034,0000
2018,2050,2047,2052,0000
2218,2060,2036,2036,0000
2001,2062,2076,2104,0000
1941,2048,2026,2031,0000
2207,2071,2030,2056,0000
2063,2042,2044,2053,0000
1898,2054,2064,2084,0000
2153,2067,2063,2054,0000
2162,2082,2048,2045,0000
1892,2052,2040,2047,0000
2077,2056,2043,2040,0000
2196,2061,2058,2052,0000
1940,2054,2038,2045,0000
1992,2057,2058,2052,0000
2212,2059,2049,2048,0000
2006,2057,2028,2007,0000
1929,2068,2088,2090,0000
2195,2065,2047,2063,0000
2080,2057,2043,2071,0000
1914,2079,2045,2061,0000
2129,2054,2039,2035,0000
2175,2076,2079,2082,0000
1919,2061,2039,2034,0000
2050,2058,2064,2078,0000
2218,2070,2062,2076,0000
1960,2065,2062,2080,0000
1978,2065,2038,2049,0000
2205,2064,2019,2030,0000
2056,2086,2081,2083,0000
1908,2043,2011,2014,0000
2185,2064,2036,2072,0000
2105,2057,2052,2080,0000
1902,2053,2035,2038,0000
2099,2046,2030,2036,0000
2177,2062,2043,2045,0000
1891,2041,2017,2024,0000
2047,2066,2047,2062,0000
2219,2070,2051,2054,0000
1991,2077,2078,2067,0000
1962,2056,2023,2031,0000
2210,2064,2068,2081,0000
2039,2058,2049,2039,0000
1888,2031,2022,2009,0000
2155,2038,2026,2031,0000
2133,2075,2045,2063,0000
1901,2064,2029,2037,0000
2104,2069,2047,2090,0000
2193,2067,2056,2064,0000
1921,2059,2042,2059,0000
2015,2052,2044,2044,0000
2199,2044,2019,2024,0000
1992,2061,2092,2116,0000
1928,2048,2048,2041,0000
2185,2049,2034,2042,0000
2088,2062,2049,2047,0000
1885,2046,2007,1991,0000
2145,2051,2020,2060,0000
2146,2059,2056,2082,0000
1902,2054,2027,2043,0000
2066,2048,2040,2044,0000
2210,2063,2047,2042,0000
1925,2044,2041,2028,0000
2018,2074,2055,2056,0000
2222,2061,2057,2063,0000
2037,2077,2058,2060,0000
1918,2049,2049,2049,0000
2181,2039,2038,2062,0000
2095,2060,2038,2066,0000
1908,2073,2049,2070,0000
2126,2060,2038,2045,0000
2171,2067,2046,2061,0000
1892,2045,2026,2041,0000
2041,2043,2037,2017,0000
2240,2077,2084,2091,0000
1964,2068,2046,2055,0000
1973,2055,2047,2056,0000
2203,2013,2023,2039,0000
2021,2033,2025,2030,0000
1897,2071,2013,2008,0000
2200,2094,2026,2043,0000
2130,2081,2052,2054,0000
1893,2060,2096,2096,0000
2102,2060,2041,2060,0000
2171,2063,2048,2049,0000
1908,2041,2032,2036,0000
2040,2052,2045,2045,0000
2221,2064,2047,2063,0000
1976,2054,2041,2046,0000
1942,2044,2039,2043,0000
2208,2064,2054,2057,0000
2051,2070,2049,2062,0000
1894,2034,2041,2049,0000
2175,2066,2065,2079,0000
2142,2068,2048,2055,0000
1900,2064,2025,2027,0000
2061,2041,2031,2032,0000
2197,2065,2115,2123,0000
1949,2069,2060,2063,0000
2029,2076,2041,2064,0000
2238,2057,2009,2043,0000
1994,2063,2044,2055,0000
1918,2057,2055,2053,0000
2199,2053,2047,2047,0000
2074,2053,2045,2055,0000
1898,2060,2047,2057,0000
2139,2062,2055,2057,0000
2154,2053,2048,2050,0000
1884,2043,2021,2029,0000
2057,2052,2022,2043,0000
2232,2092,2060,2076,0000
1933,2046,2042,2049,0000
1983,2063,2032,2036,0000
2207,2055,2036,2040,0000
2010,2060,2047,2056,0000
1924,2063,2050,2056,0000
2192,2065,2037,2045,0000
2099,2067,2045,2043,0000
1906,2063,2030,2053,0000
2118,2052,2047,2056,0000
2173,2072,2050,2058,0000
1905,2056,2035,2048,0000
2044,2059,2075,2087,0000
2214,2074,2046,2061,0000
1965,2063,2052,2056,0000
1966,2052,2032,2030,0000
2205,2054,2061,2059,0000
2037,2058,2050,2056,0000
1928,2056,2059,2077,0000
2180,2061,2047,2054,0000
2122,2063,2047,2057,0000
1898,2063,2046,2051,0000
2111,2067,2023,2026,0000
2179,2059,2048,2051,0000
1919,2046,2025,2028,0000
2035,2064,2090,2098,0000
2211,2060,2047,2064,0000
1978,2068,2041,2052,0000
1954,2064,2043,2056,0000
2219,2063,2045,2070,0000
2064,2056,2070,2095,0000
1915,2061,2036,2060,0000
2149,2064,2030,2042,0000
2139,2065,2064,2065,0000
1895,2046,2050,2064,0000
2082,2058,2042,2046,0000
2179,2059,2057,2056,0000
1932,2064,2028,2039,0000
1999,2027,2062,2080,0000
2213,2053,2059,2075,0000
1980,2066,2015,2013,0000
1933,2064,2041,2038,0000
2193,2085,2042,2037,0000
2080,2058,2046,2051,0000
1903,2050,2028,2036,0000
2139,2066,2046,2053,0000
2169,2073,2042,2049,0000
1921,2067,2071,2080,0000
2076,2070,2049,2056,0000
2216,2068,2061,2072,0000
1954,2060,2046,2056,0000
1980,2042,2036,2045,0000
2193,2036,2035,2043,0000
2017,2053,2046,2045,0000
1922,2061,2049,2050,0000
2188,2069,2032,2037,0000
2088,2044,2042,2049,0000
1876,2041,2023,2033,0000
2101,2045,2027,2020,0000
2150,2052,2051,2060,0000
1907,2049,2016,2008,0000
2042,2066,2067,2079,0000
2206,2063,2047,2049,0000
1973,2060,2041,2049,0000
1985,2073,2050,2056,0000
2228,2074,2055,2068,0000
2058,2074,2051,2048,0000
1914,2054,2022,2039,0000
2155,2050,2080,2091,0000
2101,2041,2018,2032,0000
1888,2047,2027,2032,0000
2093,2045,2055,2058,0000
2167,2045,2014,2022,0000
1919,2057,2063,2074,0000
2026,2063,2054,2062,0000
2210,2054,2035,2055,0000
1983,2057,2046,2051,0000
1943,2054,2047,2048,0000
2195,2054,2038,2044,0000
2074,2074,2054,2060,0000
1912,2063,2050,2054,0000
2176,2067,2050,2046,0000
2123,2051,2048,2043,0000
1912,2064,2070,2057,0000
2062,2050,2051,2071,0000
2218,2085,2042,2051,0000
1959,2078,2098,2095,0000
2012,2062,2049,2077,0000
2211,2088,2036,2062,0000
2007,2063,2044,2041,0000
1936,2051,2021,2030,0000
2176,2048,2027,2042,0000
2074,2059,2042,2059,0000
1894,2053,2030,2032,0000
2127,2076,2046,2039,0000
2160,2078,2068,2077,0000
1913,2057,2045,2047,0000
2053,2045,2036,2043,0000
2209,2064,2051,2063,0000
1956,2067,2048,2066,0000
1982,2060,2035,2053,0000
2225,2079,2064,2098,0000
2017,2043,2020,2017,0000
1928,2056,2074,2068,0000
2169,2052,2057,2050,0000
2103,2070,2051,2071,0000
1892,2057,2038,2049,0000
2124,2058,2070,2057,0000
2182,2069,2051,2044,0000
1921,2058,2052,2056,0000
2031,2039,2024,2044,0000
2202,2055,2053,2051,0000
1956,2052,2032,2033,0000
1965,2062,2046,2063,0000
2200,2053,2043,2050,0000
2042,2065,2048,2052,0000
1906,2048,2047,2039,0000
2167,2079,2040,2049,0000
2117,2055,2038,2048,0000
1900,2055,2034,2028,0000
2085,2048,2036,2041,0000
2166,2048,2006,2019,0000
1944,2071,2043,2025,0000
2036,2073,2133,2144,0000
2215,2064,2019,2053,0000
1998,2063,2044,2075,0000
1955,2059,2029,2063,0000
2196,2058,2051,2048,0000
2067,2062,2055,2052,0000
1907,2050,2037,2039,0000
2148,2063,2050,2056,0000
2134,2076,2050,2054,0000
1912,2057,2045,2049,0000
2054,2047,2032,2036,0000
2191,2062,2046,2056,0000
1942,2061,2038,2045,0000
1986,2052,2064,2056,0000
2214,2058,2037,2046,0000
2006,2069,2058,2055,0000
1938,2058,2041,2055,0000
2200,2071,2056,2064,0000
2094,2063,2076,2070,0000
1895,2045,2034,2012,0000
2122,2053,2031,2053,0000
2145,2049,2024,2055,0000
1908,2051,2037,2064,0000
2052,2052,2039,2035,0000
2217,2084,2064,2058,0000
1958,2056,2046,2054,0000
1976,2054,2047,2045,0000
2204,2056,2045,2055,0000
2025,2054,2045,2048,0000
1909,2045,2036,2038,0000
2181,2063,2053,2063,0000
2094,2050,2032,2031,0000
1902,2056,2059,2059,0000
2116,2059,2030,2038,0000
2178,2074,2052,2071,0000
1899,2056,2038,2047,0000
2034,2055,2000,1995,0000
2198,2047,2072,2044,0000
1987,2069,2056,2078,0000
1968,2066,2046,2055,0000
2203,2061,2039,2057,0000
2045,2053,2048,2052,0000
1905,2048,2038,2051,0000
2163,2062,2041,2056,0000
2113,2054,2041,2043,0000
1898,2052,2041,2045,0000
2088,2054,2039,2050,0000
2192,2078,2073,2066,0000
1913,2041,2032,2045,0000
2021,2068,2037,2046,0000
2205,2060,2038,2046,0000
1962,2043,2048,2060,0000
1965,2070,2056,2052,0000
2209,2084,2055,2064,0000
2075,2073,2057,2047,0000
1906,2053,2022,2022,0000
2142,2050,2039,2061,0000
2131,2052,2022,2034,0000
1906,2059,2024,2012,0000
2069,2054,2044,2033,0000
2199,2056,2044,2045,0000
1938,2058,2032,2058,0000
2000,2059,2052,2073,0000
2218,2065,2055,2062,0000
2001,2054,2042,2037,0000
1936,2069,2044,2040,0000
2190,2060,2052,2053,0000
2090,2059,2048,2050,0000
1905,2055,2047,2045,0000
2123,2043,2040,2043,0000
2163,2066,2048,2048,0000
1904,2043,2034,2034,0000
2050,2060,2042,2058,0000
2205,2066,2061,2071,0000
1954,2062,2037,2051,0000
1972,2043,2031,2037,0000
2205,2050,2055,2065,0000
2052,2084,2068,2066,0000
1919,2054,2020,2020,0000
2175,2057,2090,2101,0000
2123,2069,2057,2053,0000
1892,2055,2050,2062,0000
2105,2056,2024,2037,0000
2186,2060,2048,2059,0000
1909,2048,2029,2034,0000
2026,2054,2042,2052,0000
2206,2060,2045,2050,0000
1965,2049,2042,2040,0000
1953,2051,2044,2055,0000
2216,2076,2059,2068,0000
2034,2046,2037,2044,0000
1904,2045,2036,2031,0000
2168,2070,2049,2054,0000
2130,2068,2062,2065,0000
1904,2051,2051,2057,0000
2087,2056,2047,2050,0000
2190,2069,2042,2044,0000
1907,2042,2040,2052,0000
2014,2062,2045,2037,0000
2207,2059,2030,2067,0000
1994,2058,2038,2056,0000
1942,2057,2046,2053,0000
2195,2061,2047,2062,0000
2068,2060,2057,2050,0000
1904,2054,2031,2029,0000
2143,2058,2057,2072,0000
2151,2062,2042,2060,0000
1917,2073,2054,2067,0000
2072,2057,2048,2044,0000
2189,2059,2040,2044,0000
1946,2061,2041,2048,0000
1999,2059,2042,2036,0000
2195,2057,2053,2062,0000
2012,2054,2040,2055,0000
1940,2061,2053,2050,0000
2190,2072,2078,2077,0000
2094,2063,2043,2055,0000
1878,2044,2034,2039,0000
2110,2047,2028,2044,0000
2175,2063,2029,2034,0000
1917,2060,2066,2061,0000
2042,2048,2019,2040,0000
2195,2052,2043,2045,0000
1957,2060,2048,2046,0000
1965,2050,2045,2045,0000
2212,2050,2046,2051,0000
2037,2058,2058,2055,0000
1936,2082,2055,2053,0000
2190,2079,2051,2036,0000
2114,2076,2045,2060,0000
1915,2073,2055,2062,0000
2105,2058,2052,2057,0000
2169,2055,2046,2044,0000
1908,2048,2041,2029,0000
2020,2053,2063,2065,0000
2191,2042,2039,2051,0000
1983,2061,2053,2049,0000
1961,2072,2050,2060,0000
2208,2062,2005,2040,0000
2054,2057,2043,2061,0000
1899,2042,2017,2024,0000
2146,2054,2051,2044,0000
2121,2053,2034,2008,0000
1897,2044,2034,2051,0000
2088,2063,2046,2058,0000
2192,2066,2056,2089,0000
1935,2059,2044,2062,0000
2014,2048,2047,2049,0000
2247,2090,2072,2073,0000
2016,2074,2073,2075,0000
1931,2039,2027,2029,0000
2203,2068,2045,2046,0000
2068,2074,2022,2040,0000
1902,2060,2042,2051,0000
2155,2072,2050,2056,0000
2142,2059,2023,2046,0000
1904,2058,2041,2044,0000
2058,2045,2040,2037,0000
2202,2061,2048,2055,0000
1951,2053,2036,2039,0000
2000,2069,2050,2058,0000
2209,2056,2039,2048,0000
1991,2043,2034,2030,0000
1956,2073,2053,2029,0000
2178,2053,2050,2083,0000
2095,2069,2054,2087,0000
1899,2048,2035,2056,0000
2129,2062,2032,2028,0000
2155,2062,2062,2076,0000
1917,2060,2033,2054,0000
2057,2055,2032,2054,0000
2192,2052,2047,2048,0000
1970,2074,2059,2066,0000
1983,2066,2048,2056,0000
2210,2068,2052,2058,0000
2033,2055,2043,2052,0000
1927,2064,2043,2048,0000
2194,2087,2064,2069,0000
2114,2066,2046,2056,0000
1926,2076,2046,2059,0000
2102,2054,2040,2047,0000
2175,2064,2052,2051,0000
1930,2060,2042,2039,0000
2034,2056,2057,2077,0000
2213,2068,2052,2072,0000
1989,2067,2066,2084,0000
1961,2059,2040,2043,0000
2216,2076,2076,2080,0000
2068,2071,2048,2055,0000
1924,2072,2063,2068,0000
2162,2066,2064,2045,0000
2139,2064,2058,2063,0000
1901,2055,2042,2043,0000
2076,2054,2037,2037,0000
2194,2065,2057,2063,0000
1910,2046,2039,2037,0000
2026,2073,2066,2065,0000
2208,2060,2042,2048,0000
2007,2064,2056,2070,0000
1939,2048,2034,2042,0000
2186,2054,2031,2039,0000
2066,2052,2044,2019,0000
1909,2072,2052,2076,0000
2131,2056,2042,2052,0000
2153,2068,2032,2065,0000
1904,2056,2024,2039,0000
2065,2055,2056,2049,0000
2196,2060,2048,2064,0000
1916,2029,2022,2024,0000
2015,2079,2068,2054,0000
2214,2074,2060,2077,0000
2046,2081,2059,2064,0000
1916,2049,2030,2039,0000
2182,2059,2033,2036,0000
2088,2061,2044,2047,0000
1902,2054,2046,2048,0000
2133,2064,2057,2062,0000
2153,2055,2023,2028,0000
1918,2061,2050,2071,0000
2048,2063,2039,2050,0000
2196,2051,2039,2032,0000
1959,2057,2041,2050,0000
1976,2052,2034,2072,0000
2210,2063,2045,2079,0000
2031,2057,2040,2059,0000
1914,2052,2040,2024,0000
2165,2050,2025,2017,0000
2112,2056,2057,2048,0000
1886,2042,2031,2068,0000
2088,2041,2038,2059,0000
2165,2051,2027,2039,0000
1934,2071,2058,2066,0000
2017,2053,2052,2048,0000
2173,2034,2007,2013,0000
1988,2064,2039,2049,0000
1965,2066,2054,2054,0000
2202,2063,2057,2065,0000
2069,2064,2048,2064,0000
1888,2039,2039,2044,0000
2164,2068,2066,2065,0000
2138,2059,2028,2027,0000
1899,2053,2049,2069,0000
2094,2056,2035,2042,0000
2186,2056,2030,2030,0000
1939,2065,2070,2092,0000
2009,2058,2053,2066,0000
2213,2066,2044,2067,0000
2004,2058,2042,2051,0000
1928,2044,2031,2023,0000
2186,2054,2040,2030,0000
2087,2068,2049,2045,0000
1913,2061,2033,2049,0000
2157,2069,2074,2082,0000
2148,2057,2033,2036,0000
1899,2049,2028,2028,0000
2063,2062,2049,2064,0000
2185,2058,2025,2062,0000
1937,2050,2028,2056,0000
1974,2049,2044,2042,0000
2219,2076,2058,2045,0000
2010,2058,2052,2046,0000
1938,2070,2063,2061,0000
2189,2070,2065,2055,0000
2107,2067,2060,2056,0000
1898,2053,2062,2055,0000
2141,2080,2096,2102,0000
2180,2071,2047,2061,0000
1923,2062,2053,2060,0000
2059,2078,2035,2044,0000
2195,2055,2047,2042,0000
1958,2045,2032,2040,0000
1958,2049,2035,2034,0000
2183,2037,2042,2043,0000
2047,2065,2045,2042,0000
1914,2057,2019,2047,0000
2171,2061,2051,2059,0000
2109,2051,2031,2027,0000
1901,2064,2039,2070,0000
2093,2057,2046,2063,0000
2188,2060,2039,2059,0000
1918,2046,2040,2045,0000
2013,2057,2046,2047,0000
2197,2054,2037,2044,0000
1987,2058,2045,2049,0000
1934,2044,2056,2056,0000
2206,2066,2047,2040,0000
2051,2054,2037,2057,0000
1919,2071,2034,2036,0000
2174,2071,2060,2071,0000
2143,2059,2026,2035,0000
1909,2060,2035,2048,0000
2091,2071,2088,2085,0000
2180,2058,2035,2029,0000
1949,2073,2037,2060,0000
2004,2051,2034,2048,0000
2202,2058,2054,2060,0000
2000,2064,2042,2056,0000
1935,2050,2057,2051,0000
2188,2059,2068,2053,0000
2070,2055,2043,2059,0000
1890,2049,2027,2046,0000
2130,2059,2042,2058,0000
2152,2058,2049,2047,0000
1898,2053,2050,2039,0000
2051,2048,2022,2017,0000
2180,2053,2048,2034,0000
1960,2065,2040,2051,0000
1987,2062,2053,2078,0000
2223,2081,2044,2069,0000
2037,2058,2036,2062,0000
1917,2059,2040,2039,0000
2181,2061,2054,2049,0000
2103,2055,2043,2059,0000
1899,2063,2074,2082,0000
2108,2052,2037,2025,0000
2177,2063,2036,2042,0000
1913,2055,2037,2043,0000
2036,2056,2038,2048,0000
2206,2062,2045,2052,0000
1973,2057,2067,2060,0000
1948,2037,2034,2045,0000
2228,2079,2050,2053,0000
2041,2061,2029,2048,0000
1915,2066,2047,2031,0000
2156,2053,2045,2047,0000
2109,2048,2036,2051,0000
1904,2066,2048,2045,0000
2108,2067,2055,2063,0000
2191,2060,2032,2050,0000
1926,2059,2016,2024,0000
2014,2052,2079,2068,0000
2236,2069,2049,2043,0000
1996,2049,2078,2063,0000
1944,2052,2017,2028,0000
2199,2059,2036,2057,0000
2061,2062,2044,2058,0000
1897,2052,2046,2050,0000
2152,2064,2054,2047,0000
2144,2065,2057,2058,0000
1904,2059,2048,2049,0000
2080,2068,2053,2063,0000
2198,2063,2049,2046,0000
1937,2049,2037,2042,0000
1998,2060,2051,2052,0000
2205,2054,2023,2028,0000
2012,2075,2053,2064,0000
1937,2055,2047,2061,0000
2179,2061,2052,2071,0000
2079,2060,2026,2044,0000
1903,2056,2056,2061,0000
2126,2050,2019,2018,0000
2147,2063,2048,2047,0000
1893,2046,2016,2024,0000
2060,2057,2038,2041,0000
2200,2080,2046,2061,0000
1947,2059,2037,2039,0000
1973,2049,2032,2033,0000
2212,2068,2044,2046,0000
2028,2059,2035,2039,0000
1933,2065,2036,2043,0000
2172,2054,2050,2059,0000
2088,2066,2040,2055,0000
1916,2064,2056,2072,0000
2104,2051,2045,2046,0000
2189,2072,2061,2065,0000
1943,2080,2053,2060,0000
2020,2045,2035,2043,0000
2223,2077,2049,2056,0000
1958,2048,2033,2036,0000
1970,2061,2051,2055,0000
2197,2057,2028,2029,0000
2056,2057,2062,2076,0000
1913,2054,2041,2061,0000
2165,2058,2041,2054,0000
2123,2060,2046,2063,0000
1897,2054,2043,2046,0000
2092,2058,2056,2067,0000
2188,2068,2031,2055,0000
1920,2050,2037,2039,0000
2009,2054,2047,2047,0000
2195,2047,2031,2038,0000
1984,2054,2050,2051,0000
1951,2056,2044,2046,0000
2197,2057,2050,2058,0000
2067,2059,2048,2054,0000
1862,2017,2013,2015,0000
2151,2064,2047,2049,0000
2148,2068,2038,2049,0000
1905,2058,2038,2043,0000
2065,2041,2041,2043,0000
2204,2071,2054,2053,0000
1944,2063,2047,2047,0000
2009,2068,2041,2045,0000
2205,2057,2044,2052,0000
2016,2059,2042,2052,0000
1936,2063,2049,2063,0000
2192,2059,2038,2055,0000
2085,2056,2032,2056,0000
1885,2050,2023,2045,0000
2122,2046,2039,2049,0000
2170,2076,2065,2065,0000
1906,2056,2064,2045,0000
2059,2065,2063,2050,0000
2202,2059,2056,2038,0001
1953,2051,2043,2041,0001
1984,2061,2041,2052,0001
2205,2064,2018,2048,0001
2038,2067,2028,2048,0002
1917,2058,2029,2040,0002
2178,2062,2061,2055,0003
2108,2059,2068,2054,0004
1890,2050,2069,2054,0005
2112,2056,2059,2049,0006
2171,2059,2048,2049,0007
1933,2073,2052,2060,0009
2021,2046,2032,2046,0010
2219,2074,2050,2060,0012
1976,2063,2042,2055,0014
1958,2048,2034,2055,0016
2205,2063,2033,2054,0018
2059,2068,2042,2060,0020
1906,2052,2020,2042,0022
2166,2062,2036,2058,0024
2131,2065,2045,2052,0027
1919,2065,2031,2051,0029
2112,2071,2017,2057,0031
2185,2053,2003,2043,0034
1932,2060,2041,2064,0036
2018,2063,2082,2066,0038
2220,2068,2076,2057,0041
1989,2057,2032,2040,0043
1932,2045,2008,2032,0045
2196,2056,2054,2063,0048
2063,2051,2101,2059,0050
1912,2057,2092,2060,0052
2153,2060,2050,2063,0055
2161,2070,2015,2061,0057
1909,2060,2031,2048,0059
2078,2069,2047,2051,0062
2200,2076,2067,2049,0064
1943,2048,2029,2051,0066
2004,2059,2049,2055,0068
2207,2057,2060,2052,0070
1998,2043,2088,2056,0072
1913,2046,2080,2030,0074
2167,2047,1985,2030,0076
2069,2043,1911,2020,0078
1906,2047,1992,2048,0080
2113,2040,2090,2066,0082
2154,2051,2148,2062,0084
1899,2056,2091,2040,0086
2056,2062,2041,2046,0087
2209,2068,2036,2055,0089
1973,2070,2068,2081,0091
1983,2063,2060,2062,0093
2225,2072,2025,2061,0095
2040,2061,2008,2048,0097
1912,2048,1978,2036,0099
2152,2038,1972,2040,0101
2128,2057,2004,2072,0104
1902,2054,2071,2064,0106
2125,2077,2125,2076,0108
2185,2068,2091,2053,0111
1948,2063,1983,2024,0113
2029,2059,1955,2043,0116
2211,2062,2038,2056,0118
1985,2063,2143,2065,0121
1951,2053,2124,2062,0123
2182,2048,2005,2029,0126
2038,2049,1969,2037,0128
1901,2046,2022,2048,0131
2155,2058,2088,2064,0134
2121,2057,2053,2050,0136
1906,2063,2034,2046,0139
2080,2056,2049,2042,0141
2182,2064,2119,2058,0144
1932,2049,2089,2045,0147
2021,2066,2026,2037,0149
2199,2060,2014,2049,0152
1998,2058,2038,2051,0155
1949,2055,2032,2052,0158
2185,2060,2024,2049,0161
2072,2061,2029,2065,0164
1913,2055,2077,2062,0167
2133,2057,2069,2042,0170
2140,2061,2030,2023,0174
1918,2061,1980,2029,0177
2071,2061,1940,2032,0180
2189,2060,1973,2042,0183
1953,2051,2057,2051,0187
1990,2063,2150,2072,0190
2203,2064,2162,2098,0193
2038,2073,2065,2068,0196
1944,2063,2082,2083,0200
2192,2073,2119,2069,0203
2112,2071,2100,2063,0207
1917,2067,2054,2063,0210
2127,2069,2027,2057,0213
2162,2068,2040,2051,0217
1904,2042,2029,2026,0220
2025,2034,1972,2010,0224
2179,2041,1933,2018,0228
1960,2039,1913,2022,0231
1973,2044,1969,2033,0235
2198,2065,2067,2050,0238
2027,2053,2102,2072,0242
1924,2054,2122,2053,0245
2156,2051,2030,2034,0248
2106,2055,2029,2050,0252
1895,2043,2082,2037,0255
2097,2058,2126,2065,0258
2173,2076,2087,2054,0261
1926,2072,1977,2039,0264
2023,2056,1954,2029,0267
2194,2057,2029,2074,0271
1997,2072,2093,2072,0274
1992,2078,2074,2079,0277
2213,2088,2068,2064,0280
2059,2068,2062,2038,0284
1914,2055,2117,2050,0287
2146,2059,1985,2031,0290
2125,2057,1890,2034,0294
1911,2058,1996,2052,0297
2072,2052,2109,2070,0300
2184,2061,2135,2072,0304
1932,2050,2061,2047,0307
1996,2048,2026,2053,0311
2202,2055,2111,2059,0314
1996,2062,2162,2074,0317
1943,2058,2083,2047,0321
2192,2062,2026,2042,0324
2077,2062,1948,2036,0328
1914,2061,1916,2020,0331
2140,2046,1902,2034,0335
2139,2063,2105,2083,0338
1915,2056,2192,2075,0342
2080,2075,2086,2056,0345
2202,2070,1936,2024,0348
1966,2065,1928,2036,0352
1973,2053,2083,2074,0355
2187,2064,2188,2082,0359
2018,2063,2131,2066,0362
1939,2051,2072,2051,0365
2190,2051,2061,2039,0369
2088,2056,2036,2044,0372
1909,2056,1987,2039,0376
2105,2052,1947,2047,0379
2148,2058,2047,2058,0383
1924,2057,2070,2044,0386
2041,2072,1970,2040,0389
2196,2060,1927,2030,0393
1976,2052,1984,2033,0396
1982,2059,2116,2069,0400
2185,2071,2186,2064,0403
2055,2073,2026,2046,0406
1926,2068,2064,2066,0409
2156,2060,2074,2039,0412
2103,2049,2184,2076,0415
1917,2060,2065,2046,0418
2087,2054,1978,2050,0421
2172,2060,1984,2043,0423
1938,2054,2088,2060,0426
2027,2061,2088,2062,0429
2214,2062,2012,2060,0432
1996,2058,1963,2056,0435
1951,2048,2029,2050,0438
2194,2066,2071,2067,0441
2067,2062,2008,2026,0444
1909,2045,1971,2024,0447
2139,2060,2044,2045,0450
2142,2060,2146,2114,0453
1909,2059,2057,2053,0456
2079,2051,1890,2021,0459
2173,2056,1932,2039,0462
1951,2063,2159,2066,0465
2002,2062,2276,2081,0468
2210,2067,2166,2062,0470
2012,2064,1902,2006,0473
1941,2054,1868,2048,0476
2176,2056,2089,2072,0479
2079,2065,2220,2083,0482
1921,2058,2071,2032,0485
2133,2063,1907,2011,0488
2142,2061,1947,2047,0491
1913,2063,2128,2066,0494
2055,2062,2144,2065,0497
2201,2059,2002,2033,0499
1959,2050,1944,2038,0502
1991,2064,2060,2059,0505
2202,2065,2136,2077,0508
2025,2061,2023,2039,0511
1919,2053,1893,2010,0514
2179,2057,1949,2042,0516
2099,2055,2178,2065,0519
1923,2073,2198,2088,0522
2129,2064,2041,2031,0525
2175,2070,1952,2045,0527
1910,2047,2033,2020,0530
2020,2080,2199,2078,0533
2185,2063,2133,2077,0535
1973,2062,1923,2043,0538
1950,2050,1895,2034,0540
2197,2052,2038,2019,0543
2039,2057,2117,2067,0546
1933,2064,2019,2056,0548
2178,2063,1960,2027,0551
2112,2060,1956,2041,0554
1894,2055,2220,2095,0557
2091,2048,2133,2038,0559
2174,2051,2007,2048,0562
1936,2063,1985,2048,0565
2042,2058,2039,2065,0568
2205,2059,2168,2073,0570
1997,2065,2059,2033,0573
1954,2055,1980,2038,0576
2169,2053,2004,2062,0579
2046,2057,2081,2059,0582
1931,2050,2107,2049,0584
2150,2054,2114,2047,0587
2139,2065,1939,2007,0590
1915,2059,1909,2023,0593
2083,2062,2060,2061,0596
2177,2061,2167,2096,0599
1958,2076,2092,2054,0602
2006,2060,1933,2030,0605
2196,2060,1887,2028,0608
1994,2059,2092,2081,0611
1944,2062,2125,2053,0613
2184,2057,2063,2025,0616
2073,2055,1870,2031,0619
1918,2055,2177,2092,0622
2113,2063,2160,2056,0625
2149,2061,2072,2055,0628
1931,2054,1985,2040,0631
2071,2061,1950,2037,0633
2198,2070,2054,2072,0636
1960,2048,2007,2024,0639
1986,2057,2020,2030,0642
2183,2057,2095,2051,0645
2015,2057,2044,2052,0648
1940,2062,2098,2057,0650
2178,2063,2101,2079,0653
2116,2070,1947,2037,0656
1916,2052,1901,2042,0658
2106,2062,2047,2069,0661
2159,2060,2236,2066,0664
1913,2055,2117,2063,0666
2049,2061,1890,2025,0669
2205,2055,1974,2047,0672
1971,2048,2187,2056,0674
1979,2054,2125,2063,0677
2197,2055,1815,1988,0680
2029,2064,1843,2048,0682
1935,2061,2181,2099,0685
2152,2062,2313,2116,0687
2126,2054,2057,2039,0690
1932,2067,1822,2011,0692
2086,2065,1956,2027,0695
2163,2068,2304,2122,0698
1946,2072,2179,2074,0700
2028,2052,1919,2017,0703
2208,2064,1746,2007,0705
1988,2058,2061,2075,0707
1957,2052,2255,2070,0710
2181,2059,2128,2037,0712
2060,2059,1929,2041,0715
1919,2055,1992,2056,0717
2147,2058,2192,2056,0720
2136,2080,2098,2057,0722
1911,2050,1953,2033,0724
2059,2045,1884,2035,0727
2184,2058,2207,2073,0729
1941,2053,2161,2065,0732
2007,2055,1938,2029,0734
2205,2061,1896,2039,0737
2001,2064,1901,2021,0739
1916,2056,2187,2092,0741
2179,2058,2152,2071,0744
2080,2063,2063,2039,0746
1920,2065,1966,2046,0749
2130,2049,1980,2023,0751
2143,2065,2095,2066,0753
1923,2054,2202,2057,0756
2052,2063,2098,2056,0758
2211,2069,1924,2037,0761
1949,2052,1756,2008,0763
1957,2044,2032,2048,0765
2215,2063,2202,2059,0768
2027,2057,2231,2058,0770
1953,2064,1938,2011,0773
2182,2060,1895,2075,0775
2094,2061,2112,2060,0777
1917,2067,2184,2083,0780
2107,2063,1984,2031,0782
2172,2058,1983,2044,0785
1918,2052,2055,2025,0787
2029,2049,2148,2045,0790
2189,2054,2085,2047,0792
1957,2055,1922,2051,0795
1966,2062,2080,2072,0797
2194,2073,2071,2074,0800
2054,2056,2031,2053,0803
1924,2051,1951,2031,0805
2166,2063,2215,2089,0808
2117,2063,2173,2066,0811
1923,2064,1943,2030,0813
2089,2053,1922,2027,0816
2167,2052,2089,2060,0819
1934,2057,2102,2065,0821
2015,2063,1935,2022,0824
2201,2063,1893,2024,0827
1987,2062,2084,2079,0830
1958,2064,2176,2098,0832
2192,2061,2085,2039,0835
2063,2056,1876,2036,0838
1928,2050,2069,2053,0841
2131,2060,2177,2054,0843
2131,2057,2091,2030,0846
1907,2070,2008,2011,0849
2068,2039,1929,2035,0851
2198,2064,2122,2096,0854
1930,2054,2175,2070,0857
2019,2068,2132,2086,0860
2199,2065,1860,2021,0862
1994,2058,1881,2043,0865
1964,2051,2095,2050,0868
2188,2064,2221,2072,0871
2103,2067,2026,2025,0873
1912,2044,1823,2019,0876
2100,2049,1954,2044,0879
2159,2069,2141,2083,0882
1917,2066,2276,2120,0884
2046,2063,2079,2054,0887
2206,2060,1898,2054,0890
1941,2059,2078,2050,0892
1991,2054,2124,2060,0895
2200,2056,2052,2034,0898
2046,2061,1931,1988,0900
1933,2058,1871,2041,0903
2170,2055,2037,2063,0906
2105,2060,2180,2101,0908
1903,2046,2024,2046,0911
2096,2042,1915,2016,0913
2150,2055,2066,2040,0916
1941,2060,2242,2056,0918
2029,2068,2155,2060,0921
2206,2069,1993,2047,0924
1978,2056,1941,2032,0926
1950,2056,2108,2102,0929
2215,2061,2171,2078,0932
2062,2053,1940,2019,0935
1921,2051,1823,1988,0937
2144,2063,1974,2054,0940
2113,2056,2144,2107,0943
1912,2060,2079,2034,0945
2059,2056,1881,1996,0948
2159,2071,2040,1980,0951
1963,2063,2220,2091,0953
2025,2070,2078,2051,0956
2211,2061,1903,2025,0959
2018,2071,2112,2086,0962
1933,2079,2229,2092,0964
2204,2066,2164,2083,0967
2094,2066,1918,2062,0970
1908,2054,1907,2052,0973
2132,2063,2010,2040,0975
2135,2060,2165,2037,0978
1909,2061,2076,2010,0981
2078,2057,1980,2048,0984
2180,2064,1892,2039,0987
1940,2060,2003,2080,0990
1987,2069,2281,2099,0992
2224,2067,2142,2064,0995
2021,2063,2067,2062,0998
1948,2052,1756,1983,1000
2186,2060,1980,2057,1003
2083,2067,2245,2083,1006
1902,2052,2052,2040,1008
2118,2057,1892,2032,1011
2142,2037,1954,2031,1013
1940,2069,2244,2072,1016
2078,2055,2383,2107,1019
2220,2069,2120,2060,1021
1988,2076,1767,2020,1024
1962,2048,1838,2045,1026
2194,2069,2077,2060,1029
2039,2070,2167,2071,1031
1928,2053,2129,2045,1033
2180,2059,1918,1994,1036
2091,2050,1960,2078,1038
1888,2060,2167,2095,1040
2103,2063,2017,2029,1042
2177,2074,2072,2057,1044
1946,2060,2027,2056,1047
2044,2059,2023,2022,1049
2212,2054,2094,2084,1051
1957,2056,2146,2047,1053
1956,2047,2105,2053,1055
2201,2063,2031,2031,1057
2052,2050,1836,2000,1059
1905,2047,1981,2037,1061
2152,2072,2213,2096,1063
2108,2073,2058,2072,1065
1899,2053,1994,2060,1067
2091,2052,2052,2067,1069
2213,2097,2214,2101,1071
2002,2126,2107,2097,1073
2076,2122,1912,2071,1075
2249,2107,2012,2126,1077
2004,2074,2298,2101,1079
1950,2070,2199,2055,1081
2218,2083,1907,2040,1083
2094,2087,1797,2073,1085
1934,2078,2194,2110,1087
2175,2082,2178,2080,1089
2135,2056,2051,2051,1091
1904,2065,1821,2006,1093
2140,2108,2079,2084,1095
2251,2128,2399,2163,1096
2009,2135,2302,2176,1098
1992,2042,1736,1963,1100
2171,2028,1779,2048,1102
1876,1952,2175,1977,1104
1761,1889,2017,1900,1106
2010,1863,1924,1857,1108
1939,1919,1744,1909,1110
1821,1964,1840,1921,1112
2074,1979,2073,1995,1114
2114,2006,2057,2007,1116
1845,2026,1944,2000,1118
2054,2052,2068,2088,1120
2211,2061,1885,2009,1122
1956,2062,1946,2095,1124
1973,2057,2247,2077,1126
2226,2089,2238,2089,1128
2051,2078,2172,2077,1130
1941,2064,1867,2021,1132
2197,2081,1984,2078,1134
2138,2096,2122,2092,1136
1916,2080,2038,2067,1138
2133,2056,1858,2052,1140
2210,2079,2026,2006,1142
1942,2082,2081,2052,1144
2049,2092,2378,2093,1146
2352,2195,2036,2142,1148
2098,2178,2042,2184,1150
2037,2195,2280,2200,1152
2238,2079,2218,2084,1154
1999,2000,2165,2013,1156
1829,1976,1742,1899,1158
2112,1996,1685,1973,1160
2080,2010,2122,2061,1162
1849,2016,2057,2027,1164
2039,2020,1909,1967,1166
2165,2040,2011,2013,1168
1915,2044,2141,2037,1170
2007,2061,2157,2079,1172
2194,2066,2012,2066,1174
2006,2056,1943,2033,1176
1949,2055,1980,2056,1178
2189,2070,2073,2072,1180
2080,2058,1945,2034,1182
1909,2057,1877,2020,1184
2151,2083,2290,2073,1186
2150,2078,2093,2096,1187
1911,2053,1801,1985,1189
2087,2060,1891,2000,1191
2193,2072,2326,2139,1193
1947,2078,2304,2107,1195
1990,2066,2087,2067,1196
2213,2053,1709,2000,1198
2020,2070,2099,2081,1200
1926,2069,2162,2043,1202
2216,2078,2047,2039,1204
2100,2057,2022,2031,1205
1914,2066,2042,2072,1207
2126,2052,1906,2012,1209
2174,2091,2082,2111,1211
1938,2089,2186,2076,1212
2079,2096,2248,2118,1214
2238,2087,2053,2080,1216
1955,2041,1661,1998,1218
1949,2047,2144,2114,1220
2181,2044,2187,2066,1221
2014,2049,2213,2056,1223
1908,2040,1840,1983,1225
2158,2021,1543,1983,1227
2109,2060,2290,2111,1228
1889,2054,2287,2081,1230
2105,2066,2310,2085,1232
2192,2052,1595,1949,1233
1927,2056,1860,2061,1235
2028,2064,2330,2084,1236
2210,2081,2350,2092,1238
1988,2080,1943,2034,1240
1976,2042,1547,1960,1242
2210,2062,2096,2075,1243
2048,2071,2406,2071,1245
1890,2056,2263,2069,1247
2159,2055,1863,2013,1248
2121,2026,1821,2056,1250
1905,2068,2129,2049,1252
2076,2049,2205,2092,1254
2191,2068,2056,2035,1256
1927,2042,1868,2005,1258
2013,2040,1806,2017,1260
2225,2070,2201,2100,1262
2008,2077,2164,2049,1264
1935,2059,2018,2044,1265
2203,2075,2080,2072,1267
2075,2064,2033,2064,1269
1900,2067,2002,2047,1271
2153,2060,1832,2023,1273
2142,2045,2028,2021,1274
1895,2054,2275,2031,1276
2069,2076,2356,2121,1278
2203,2064,2046,2083,1280
1956,2048,1584,2003,1282
1986,2043,2002,2059,1284
2206,2064,2237,2047,1286
2017,2068,2199,2070,1288
1924,2058,1939,2021,1289
2167,2035,1704,2001,1291
2102,2072,2239,2057,1293
1902,2068,2256,2080,1295
2126,2077,2197,2073,1297
2163,2048,1632,1993,1298
1912,2047,1756,2037,1300
2030,2053,2318,2111,1302
2200,2086,2326,2087,1303
1968,2080,2086,2046,1305
1959,2033,1724,2015,1306
2232,2051,1921,1957,1308
2058,2063,2116,2056,1309
1910,2082,2401,2112,1311
2179,2081,2097,2090,1312
2133,2060,1993,2056,1314
1900,2047,1858,1966,1315
2113,2061,1976,2057,1317
2188,2071,2055,2043,1318
1930,2069,2069,2079,1320
2013,2053,2005,2066,1321
2197,2053,1895,2007,1322
1989,2074,2117,2052,1323
1948,2077,2297,2122,1325
2214,2079,1936,2053,1326
2047,2044,1753,2055,1327
1890,2069,2197,2054,1328
2153,2068,2224,2051,1329
2135,2080,2242,2056,1330
1903,2049,1726,1984,1331
2059,2022,1844,2028,1332
2189,2078,2314,2118,1332
1928,2066,2202,2091,1333
2009,2074,2005,2053,1334
2215,2042,1646,2012,1335
2005,2063,2068,1973,1336
1937,2068,2276,2103,1337
2204,2082,2282,2079,1337
2088,2066,1905,2048,1338
1906,2040,1689,2044,1339
2128,2071,2239,2061,1340
2156,2059,2154,2086,1340
1892,2053,2117,2053,1341
2053,2040,1911,2069,1342
2209,2063,1900,2026,1343
1939,2057,2230,2072,1343
1981,2058,2145,2036,1344
2207,2038,1850,1984,1345
2020,2046,1928,2068,1346
1925,2071,2140,2070,1346
2191,2060,2213,2102,1347
2112,2070,2114,2068,1348
1906,2059,1850,2030,1348
2114,2036,1900,2023,1349
2167,2044,1931,2048,1350
1903,2047,1914,2031,1350
2037,2059,2268,2043,1351
2207,2052,1911,1966,1351
1981,2063,2190,2056,1352
1975,2081,2146,2080,1352
2220,2068,2072,2108,1352
2045,2077,2116,2089,1353
1904,2039,1804,1967,1353
2160,2046,1911,2081,1353
2116,2064,2277,2052,1354
1890,2061,2088,2038,1354
2114,2034,1812,1943,1354
2194,2069,2032,2083,1355
1925,2076,2205,2084,1355
2015,2081,2330,2109,1356
2218,2055,1861,1989,1356
1996,2041,1723,2050,1356
1942,2065,2243,2058,1357
2199,2084,2297,2104,1357
2080,2071,1947,2014,1357
1890,2020,1673,2024,1358
2153,2078,2219,2127,1358
2140,2064,2298,2093,1359
1904,2080,2203,2085,1359
2075,2023,1695,1973,1360
2207,2044,1908,2019,1360
1930,2070,2177,2068,1361
1999,2053,2230,2076,1361
2223,2065,1956,2042,1362
1992,2023,1835,2018,1363
1924,2037,2047,2018,1363
2180,2053,2001,2010,1364
2080,2037,2074,2037,1364
1878,2049,2126,2048,1365
2152,2070,1986,2040,1366
2150,2056,1970,2098,1366
1903,2085,2280,2055,1367
2060,2060,2152,2065,1368
2233,2061,1867,1957,1368
1929,2023,1721,2058,1369
1974,2070,2269,2116,1370
2207,2072,2380,2129,1370
2030,2075,2178,2053,1371
1917,2008,1536,1908,1372
2196,2076,2068,2119,1372
2105,2078,2365,2126,1373
1906,2078,2204,2115,1374
2113,2051,1985,2032,1375
2182,2051,1872,2016,1375
1901,2031,1881,1997,1376
2043,2065,2119,2086,1377
2208,2064,2179,2036,1377
1964,2072,2120,2075,1378
1968,2060,1927,2042,1379
2211,2045,1835,2019,1379
2050,2080,2013,2045,1380
1890,2047,2210,2009,1380
2182,2066,2102,2056,1380
2119,2045,2065,2075,1381
1893,2066,2068,2084,1381
2095,2065,2138,2059,1381
2181,2081,2055,2061,1381
1922,2061,1976,2056,1381
2016,2048,1967,2030,1382
2227,2059,2125,2040,1382
1986,2069,2023,2057,1382
1942,2059,2045,2044,1382
2199,2039,1924,2012,1382
2078,2079,2076,2066,1382
1896,2066,2067,2059,1382
2157,2071,2133,2081,1381
2143,2060,2080,2062,1381
1892,2049,2017,2048,1381
2069,2055,1974,2028,1381
2202,2062,1978,2052,1381
1931,2054,2082,2026,1381
1987,2059,2082,2062,1381
2216,2064,2054,2041,1380
2003,2062,1892,2046,1380
1931,2062,2085,2056,1380
2195,2057,2066,2056,1379
2085,2063,2141,2067,1379
1901,2065,1982,2044,1378
2136,2063,1956,2030,1378
2172,2073,2086,2060,1377
1908,2060,2127,2054,1376
2056,2061,2055,2070,1375
2202,2048,1916,2020,1374
1951,2044,1994,2035,1373
1976,2071,2100,2044,1371
2216,2076,2096,2060,1370
2032,2060,1994,2058,1368
1908,2036,1964,2006,1367
2208,2070,2175,2094,1365
2115,2067,2149,2052,1363
1900,2072,2109,2067,1361
2117,2056,1968,2028,1359
2177,2065,2009,2053,1357
1910,2052,2073,2063,1355
2032,2053,2043,2053,1353
2207,2053,2051,2049,1351
1965,2049,1997,2032,1349
1955,2050,2005,2036,1347
2204,2056,2088,2051,1345
2044,2056,2027,2039,1343
1911,2044,1959,2033,1341
2168,2055,2056,2040,1339
2129,2055,2062,2037,1336
1893,2060,2196,2078,1334
2095,2058,2109,2077,1331
2183,2046,1904,2035,1329
1924,2072,2059,2079,1326
2007,2052,2075,2085,1323
2213,2061,2136,2062,1320
1985,2050,2051,2046,1317
1927,2044,1963,2021,1315
2204,2052,2044,2053,1312
2065,2048,2068,2044,1309
1897,2035,2048,2032,1306
2145,2043,2025,2033,1303
2150,2060,2051,2057,1300
1896,2044,1994,2045,1297
2064,2045,2059,2070,1294
2217,2054,2025,2026,1291
1929,2046,2023,2055,1288
1984,2055,2132,2098,1284
2209,2056,2090,2064,1281
1997,2052,2090,2056,1277
1910,2044,2024,2024,1274
2191,2054,1994,2062,1270
2096,2062,2052,2105,1266
1912,2057,1972,2034,1263
2156,2050,2098,2058,1259
2168,2061,2081,2062,1255
1907,2052,2081,2046,1251
2052,2058,1976,2055,1247
2205,2062,1979,2050,1243
1947,2058,2061,2048,1239
1983,2060,2142,2075,1235
2218,2060,2037,2031,1231
2044,2064,2034,2050,1227
1894,2046,1975,2055,1223
2201,2061,2126,2084,1219
2083,2055,2053,2049,1215
1884,2046,2028,2044,1211
2136,2051,2060,2049,1207
2199,2053,2068,2069,1203
1936,2054,2077,2063,1199
2059,2052,1991,2036,1196
2203,2061,2001,2042,1192
1951,2051,2043,2047,1188
1947,2050,2004,2026,1185
2211,2051,1952,2030,1181
2026,2050,2011,2038,1177
1890,2058,2077,2065,1174
2156,2063,2146,2059,1170
2130,2066,2091,2053,1166
1894,2053,1905,2034,1162
2083,2059,2062,2061,1158
2188,2068,2058,2066,1154
1927,2079,2164,2066,1149
2005,2060,2046,2045,1145
2214,2058,2011,2055,1141
2006,2066,2052,2064,1137
1939,2058,2006,2031,1133
2197,2058,2000,2037,1129
2067,2063,2060,2053,1125
1884,2049,2085,2057,1122
2170,2058,2090,2055,1118
2152,2059,2036,2045,1114
1907,2060,2005,2044,1110
2075,2061,2021,2064,1106
2198,2061,2000,2059,1102
1947,2060,2033,2061,1098
1995,2056,2104,2053,1094
2210,2051,2107,2055,1090
2022,2066,2052,2055,1086
1926,2057,1914,2027,1082
2198,2067,2025,2064,1078
2106,2071,2092,2089,1074
1904,2060,2078,2050,1069
2124,2059,2064,2050,1065
2162,2060,2076,2036,1061
1900,2050,2071,2045,1056
2033,2045,2027,2031,1052
2203,2060,1962,2022,1048
1940,2046,2007,2060,1043
1970,2058,2109,2076,1039
2225,2059,2107,2077,1034
2044,2056,2044,2035,1030
1919,2036,1925,2008,1025
2171,2059,2005,2050,1020
2104,2054,2106,2054,1016
1896,2063,2090,2057,1011
2108,2056,2063,2043,1007
2166,2065,1946,2031,1002
1919,2053,1965,2049,0997
2026,2063,2110,2062,0992
2218,2060,2127,2068,0988
1994,2069,2112,2061,0983
1953,2055,2027,2039,0978
2191,2059,1974,2045,0973
2063,2061,2010,2050,0968
1911,2050,2074,2037,0963
2168,2076,2076,2041,0958
2130,2060,2036,2049,0953
1904,2062,1993,2037,0948
2091,2067,1961,2029,0943
2190,2064,2089,2061,0937
1950,2068,2152,2092,0932
2002,2059,2099,2071,0927
2217,2067,2029,2048,0921
2004,2064,1960,2033,0916
1940,2048,2029,2043,0911
2184,2060,2067,2058,0906
2063,2060,2039,2044,0900
1904,2053,1948,2046,0895
2122,2063,2084,2059,0889
2146,2053,2085,2027,0884
1887,2046,2130,2052,0878
2072,2045,2008,2003,0873
2205,2064,2026,2068,0867
1949,2066,2049,2073,0861
1975,2041,1880,2023,0856
2198,2066,2013,2061,0850
2020,2064,2176,2074,0844
1933,2061,2214,2066,0839
2181,2055,2143,2073,0833
2085,2044,1970,2019,0828
1890,2039,1979,2030,0822
2101,2049,2030,2045,0817
2165,2055,2021,2046,0812
1916,2060,2015,2042,0807
2039,2063,1999,2042,0802
2208,2070,2020,2064,0798
1981,2092,2050,2058,0793
1979,2068,2124,2071,0788
2222,2076,1915,2027,0783
2061,2068,1936,2039,0779
1932,2070,2088,2076,0774
2149,2068,2224,2111,0769
2103,2054,2232,2118,0764
1894,2044,2007,2040,0759
2090,2048,1970,2024,0755
2157,2052,2064,2043,0750
1922,2051,2082,2048,0746
2014,2042,2049,2034,0741
2190,2056,2036,2041,0737
1975,2047,2018,2032,0733
1961,2051,1999,2044,0729
2195,2060,2014,2053,0726
2087,2068,2015,2060,0722
1921,2064,1987,2048,0718
2150,2062,2010,2064,0714
2131,2068,2015,2051,0711
1925,2078,2070,2067,0707
2071,2063,2034,2025,0703
2180,2060,2011,2043,0699
1947,2057,2001,2012,0695
2010,2048,2102,2059,0691
2200,2059,2189,2087,0686
2009,2063,2163,2087,0682
1946,2068,2056,2060,0678
2185,2059,1957,2025,0674
2094,2060,1984,2037,0669
1917,2057,2108,2080,0665
2123,2060,2101,2071,0661
2157,2063,2016,2051,0657
1918,2071,1932,2050,0653
2072,2079,2028,2064,0649
2216,2071,2129,2068,0645
1980,2057,2121,2048,0641
1982,2053,2023,2030,0637
2187,2060,1979,2039,0633
2029,2060,2015,2061,0630
1934,2055,2053,2046,0626
2169,2062,2043,2058,0622
2096,2056,1974,2026,0618
1908,2063,1974,2032,0614
2098,2047,2074,2061,0610
2150,2054,2186,2104,0607
1930,2053,2088,2042,0603
2031,2049,1936,2012,0599
2183,2061,1915,2042,0595
1973,2054,2149,2095,0591
1969,2049,2177,2069,0587
2193,2060,2127,2058,0583
2054,2058,2020,2038,0579
1926,2048,1991,2044,0575
2156,2062,2062,2061,0571
2130,2062,2056,2057,0567
1926,2064,1996,2045,0563
2096,2063,1954,2051,0559
2188,2074,2032,2080,0555
1959,2065,2104,2067,0552
2041,2075,2129,2077,0548
2212,2071,2066,2071,0544
2013,2076,1985,2055,0541
1950,2057,1957,2056,0537
2179,2059,2082,2068,0533
2068,2056,2136,2054,0530
1902,2042,2090,2023,0526
2122,2043,2016,2017,0522
2116,2046,1973,2038,0519
1901,2044,2036,2040,0515
2067,2053,2031,2037,0511
2176,2054,1955,2014,0508
1940,2042,1937,2038,0504
1981,2048,2070,2034,0500
2191,2049,2152,2072,0496
2004,2050,2113,2047,0493
1937,2054,2033,2047,0489
2167,2062,1973,2054,0485
2092,2064,2034,2061,0481
1925,2064,2027,2048,0477
2131,2066,1998,2038,0474
2161,2068,2012,2056,0470
1945,2078,2080,2073,0466
2058,2065,2172,2083,0462
2184,2065,2112,2052,0459
1979,2061,2039,2037,0455
1979,2050,1962,2035,0451
2192,2060,2037,2053,0448
2030,2056,2031,2055,0444
1926,2047,2014,2039,0441
2158,2052,2039,2059,0437
2104,2057,2012,2051,0434
1916,2058,1987,2030,0431
2101,2058,2072,2064,0427
2156,2058,2124,2046,0424
1923,2050,2113,2042,0421
2024,2052,2056,2044,0418
2197,2064,1993,2048,0414
1995,2065,2056,2068,0411
1965,2069,2062,2045,0408
2180,2056,2046,2048,0405
2058,2073,2048,2053,0403
1927,2060,2060,2048,0400
2159,2070,2065,2056,0397
2133,2063,1994,2051,0394
1922,2067,1998,2047,0392
2094,2066,1992,2049,0389
2191,2064,2066,2068,0387
1944,2065,2119,2061,0384
2000,2044,2075,2046,0382
2228,2088,2048,2064,0379
2003,2066,1992,2042,0377
1956,2068,2033,2062,0374
2169,2054,2057,2042,0372
2074,2066,2086,2060,0369
1914,2063,2046,2056,0367
2140,2066,2055,2058,0364
2133,2050,2030,2046,0362
1920,2054,2035,2051,0359
2066,2060,2042,2053,0357
2186,2060,2022,2051,0354
1951,2055,2050,2053,0352
1985,2044,2022,2037,0349
2188,2049,2010,2044,0346
2017,2050,2019,2053,0343
1939,2050,2036,2045,0341
2160,2050,2016,2044,0338
2099,2067,2018,2044,0335
1922,2059,2002,2066,0332
2128,2067,2108,2068,0329
2154,2071,2130,2057,0326
1929,2061,2096,2042,0323
2052,2048,2048,2044,0320
2188,2055,2030,2051,0317
1975,2048,2066,2057,0314
1981,2062,2054,2050,0311
2198,2067,2021,2050,0309
2037,2056,1982,2057,0306
1938,2063,2069,2066,0303
2152,2059,2091,2055,0300
2094,2052,2079,2041,0298
1935,2068,2061,2050,0295
2096,2059,2013,2053,0293
2173,2071,2045,2070,0290
1947,2064,2040,2052,0288
2039,2060,2030,2044,0286
2209,2077,2042,2078,0284
1984,2061,2038,2061,0282
1978,2071,2044,2058,0280
2192,2074,2062,2059,0278
2057,2067,2042,2057,0276
1934,2064,2039,2051,0274
2148,2069,2042,2057,0272
2120,2049,2037,2040,0270
1916,2057,2042,2051,0268
2067,2053,2032,2044,0267
2167,2056,2031,2039,0264
1963,2071,2042,2050,0262
1999,2050,2043,2048,0260
2182,2057,2048,2045,0258
2016,2061,2056,2063,0256
1947,2053,2039,2042,0254
2188,2073,2065,2059,0252
2077,2055,2065,2045,0249
1919,2050,2045,2037,0247
2126,2052,2043,2048,0244
2137,2058,2038,2049,0242
1958,2087,2062,2067,0240
2063,2058,2039,2047,0237
2197,2083,2060,2061,0234
1974,2060,2043,2060,0232
1979,2050,2038,2056,0229
2214,2072,2054,2065,0226
2036,2092,2061,2061,0223
1947,2062,2050,2058,0220
2168,2069,2052,2062,0218
2071,2047,2021,2041,0215
1929,2060,2040,2052,0212
2103,2062,2043,2044,0209
2155,2080,2049,2054,0206
1920,2041,2037,2034,0203
2035,2053,2042,2053,0201
2190,2070,2054,2056,0198
1977,2054,2049,2048,0195
1968,2043,2035,2047,0193
2185,2064,2047,2057,0190
2049,2069,2050,2062,0188
1927,2048,2033,2039,0185
2155,2041,2034,2045,0183
2116,2051,2054,2060,0180
1922,2057,2047,2052,0178
2096,2056,2047,2033,0176
2185,2080,2069,2085,0174
1942,2051,2014,2048,0172
2026,2059,2016,2050,0170
2203,2069,2009,2052,0168
2015,2075,2092,2078,0166
1960,2067,2092,2054,0164
2192,2072,2116,2079,0163
2052,2054,2071,2035,0161
1912,2062,2070,2052,0159
2142,2060,2057,2055,0158
2120,2056,2042,2039,0156
1917,2047,2016,2054,0154
2080,2051,2028,2052,0153
2189,2076,2042,2068,0152
1939,2056,2032,2032,0150
2015,2060,2048,2046,0149
2203,2057,2054,2057,0148
2009,2070,2050,2063,0147
1949,2058,2050,2055,0146
2169,2064,2043,2039,0145
2081,2054,2055,2075,0144
1908,2048,2022,2023,0143
2124,2078,2069,2073,0142
2169,2095,2058,2047,0141
1922,2062,2072,2068,0140
2057,2055,2025,2046,0140
2222,2095,2081,2092,0139
1959,2054,2026,2037,0138
1999,2068,2072,2095,0138
2172,2041,2007,2022,0137
2007,2051,2022,2025,0137
1928,2043,2034,2040,0136
2157,2044,2042,2052,0136
2087,2053,2026,2040,0135
1899,2042,2014,2033,0135
2082,2030,2012,2014,0134
2132,2033,2027,2037,0134
1942,2078,2047,2052,0133
2035,2066,2041,2049,0133
2218,2097,2088,2067,0132
2001,2066,2067,2080,0131
1975,2069,2044,2061,0131
2198,2081,2052,2075,0130
2056,2060,2044,2048,0129
1956,2077,2070,2065,0127
2153,2064,2081,2084,0126
2131,2067,2046,2061,0125
1921,2052,2048,2043,0124
2105,2071,2055,2041,0123
2169,2066,2068,2070,0121
1950,2065,2036,2044,0120
2001,2042,2009,2044,0118
2186,2058,2026,2038,0117
1988,2055,2041,2040,0115
1957,2061,2065,2069,0114
2187,2060,2031,2061,0112
2066,2057,2049,2063,0111
1919,2063,2031,2043,0109
2140,2063,2050,2055,0107
2108,2035,2043,2047,0105
1949,2079,2057,2061,0104
2054,2047,2029,2034,0102
2184,2079,2043,2045,0100
1949,2047,2053,2056,0098
2004,2050,2043,2040,0096
2186,2040,2048,2047,0095
2018,2066,2041,2029,0093
1945,2057,2052,2060,0091
2181,2080,2039,2060,0089
2086,2064,2060,2062,0088
1906,2025,2051,2035,0086
2128,2074,2044,2061,0085
2160,2074,2049,2070,0084
1929,2086,2028,2055,0082
2046,2048,2040,2047,0081
2187,2050,2041,2041,0080
1952,2055,2054,2069,0079
1958,2024,2017,2020,0077
2201,2051,2057,2068,0076
2034,2068,2049,2058,0075
1921,2048,2037,2017,0074
2176,2074,2124,2128,0072
2095,2039,2005,2009,0071
1904,2053,2034,2048,0070
2133,2082,2057,2082,0068
2175,2065,2045,2053,0067
1929,2060,2041,2035,0066
2038,2044,2054,2048,0065
2196,2057,2069,2062,0063
1984,2079,2065,2069,0062
1976,2058,2009,2033,0061
2212,2082,2063,2071,0059
2044,2041,2052,2067,0058
1929,2034,2046,2058,0056
2143,2049,2026,2038,0055
2124,2057,2042,2054,0053
1926,2078,2062,2065,0051
2096,2060,2040,2049,0050
2176,2057,2052,2053,0048
1928,2042,2030,2022,0046
1977,2020,2026,2021,0044
2183,2036,2024,2005,0043
2006,2066,2072,2074,0041
1947,2076,2048,2032,0039
2182,2066,2047,2060,0038
2053,2061,2058,2052,0036
1909,2041,1993,2021,0034
2131,2048,2100,2119,0033
2146,2064,2029,2067,0031
1918,2054,2047,2043,0030
2065,2052,2051,2062,0028
2189,2058,2040,2034,0027
1952,2059,2054,2054,0025
1997,2059,2052,2046,0024
2199,2060,2055,2053,0022
2019,2065,2049,2040,0020
1969,2086,2064,2071,0019
2167,2058,2044,2045,0017
2092,2035,2028,2019,0016
1932,2065,2041,2052,0014
2133,2088,2074,2079,0013
2158,2091,2032,2044,0011
1939,2083,2070,2098,0010
2066,2072,2039,2060,0009
2188,2068,2040,2064,0008
1970,2054,2044,2055,0006
1975,2042,2016,2017,0005
2207,2046,2027,2033,0004
2039,2072,2074,2078,0003
1924,2050,2015,2033,0002
2168,2060,2059,2079,0002
2099,2047,2009,2026,0002
1916,2051,2037,2036,0002
2099,2043,2032,2035,0002
2162,2052,2056,2063,0002
1935,2060,2043,2026,0002
2031,2060,2059,2066,0002
2198,2055,2028,2050,0002
1994,2070,2079,2081,0002
1922,1998,2030,2020,0002
2222,2089,2080,2087,0002
2056,2073,2029,2075,0002
1921,2084,2013,2056,0002
2152,2069,2030,2044,0002
2109,2030,2074,2085,0002
1886,2044,2004,2007,0002
2077,2054,2052,2062,0002
2178,2064,2039,2052,0002
1941,2061,2047,2040,0002
2015,2053,2053,2051,0002
2201,2059,2049,2060,0001
1992,2050,2043,2043,0001
1948,2053,2040,2043,0001
2177,2053,2036,2049,0001
2057,2052,2035,2010,0001
1901,2039,2041,2034,0001
2137,2047,2029,2057,0001
2146,2070,2011,2037,0001
1915,2062,2022,2028,0001
2061,2067,2087,2091,0001
2211,2068,2060,2089,0001
1950,2046,2057,2062,0001
1991,2067,2031,2050,0001
2168,2039,2037,2033,0001
2046,2088,2077,2075,0001
1921,2051,2017,2037,0001
2183,2062,2050,2058,0001
2106,2061,2035,2023,0001
1897,2054,2037,2076,0001
2104,2049,2055,2040,0001
2173,2058,2065,2061,0001
1917,2061,2037,2060,0001
2050,2067,2040,2042,0001
2222,2080,2076,2109,0001
1940,2028,2030,2034,0001
1966,2037,2025,2028,0001
2175,2048,2036,2047,0001
2048,2065,2057,2087,0001
1921,2061,2050,2057,0001
2177,2074,2072,2057,0001
2118,2060,2049,2043,0001
1912,2057,2053,2050,0001
2096,2060,2036,2052,0001
2182,2073,1979,2044,0001
1930,2045,1960,2030,0001
2025,2061,1957,2048,0001
2193,2052,2071,2086,0001
1989,2061,2165,2077,0001
1956,2054,2208,2059,0001
2195,2055,2136,2032,0001
2057,2062,2041,2046,0001
1911,2053,2016,2044,0001
2144,2047,2044,2049,0001
2126,2064,2052,2052,0001
1905,2063,2042,2053,0001
2085,2060,2027,2051,0001
2188,2064,2025,2053,0001
1941,2059,2016,2044,0001
1991,2050,2020,2046,0001
2213,2063,2022,2049,0001
2021,2068,2009,2062,0001
1960,2067,1987,2053,0001
2176,2048,1980,2042,0002
2095,2072,1964,2054,0002
1921,2061,1982,2049,0003
2121,2055,2007,2051,0005
2159,2069,2121,2076,0006
1915,2053,2165,2028,0008
2054,2058,2156,2052,0011
2189,2050,2083,2038,0014
1948,2064,2057,2055,0017
1975,2053,2116,2063,0021
2196,2056,2153,2054,0024
2020,2056,2100,2042,0028
1930,2049,2025,2040,0033
2169,2060,2025,2063,0037
2103,2057,2021,2050,0042
1896,2056,2008,2046,0047
2122,2062,1989,2051,0052
2163,2060,2001,2046,0057
1921,2047,2011,2050,0063
2050,2067,2022,2048,0069
2195,2063,2005,2045,0074
1981,2065,2016,2051,0080
1983,2066,2032,2061,0086
2216,2079,1977,2049,0092
2068,2078,1950,2044,0098
1936,2067,1923,2060,0103
2168,2065,2045,2068,0109
2109,2055,2162,2052,0115
1911,2064,2068,2008,0120
2102,2061,2122,2060,0126
2164,2064,2121,2078,0131
1915,2053,2223,2087,0136
2003,2048,2203,2086,0141
2183,2054,2034,2033,0147
1983,2049,1998,2040,0152
1944,2048,1988,2032,0157
2182,2052,1939,2028,0162
2046,2050,1887,2018,0167
1907,2049,1845,2041,0173
2120,2036,2080,2061,0178
2120,2040,2176,2048,0183
1927,2044,2072,2009,0189
2072,2048,1957,2014,0195
2194,2067,2028,2050,0200
1948,2058,2208,2134,0206
2007,2060,2167,2081,0212
2201,2060,1997,2048,0217
2026,2073,1950,2042,0223
1959,2078,2102,2073,0229
2206,2089,2118,2089,0235
2104,2074,2040,2061,0241
1922,2051,1940,2029,0247
2108,2039,1964,2028,0253
2138,2050,2065,2027,0259
1922,2049,2069,2031,0264
2062,2056,2088,2059,0270
2188,2063,1929,2027,0276
1952,2059,2078,2092,0282
1974,2053,2132,2057,0287
2174,2054,2174,2096,0293
2037,2060,2022,2057,0298
1929,2044,1976,2029,0304
2166,2059,2041,2049,0309
2112,2066,2057,2054,0314
1922,2063,2024,2036,0320
2111,2057,1998,2055,0325
2165,2061,1940,2031,0330
1920,2041,1991,2045,0335
2030,2049,2035,2013,0340
2182,2058,2101,2068,0345
1981,2067,2046,2062,0350
1962,2061,2014,2074,0355
2187,2065,2045,2078,0359
2055,2078,2179,2082,0364
1934,2058,2145,2057,0368
2143,2058,2077,2046,0373
2106,2069,2051,2032,0378
1929,2064,2069,2052,0382
2109,2061,2004,2050,0387
2198,2074,2031,2065,0392
1931,2052,2016,2060,0396
2024,2057,2009,2040,0401
2196,2056,1951,2054,0406
2008,2061,1903,2017,0411
1963,2054,1969,2053,0415
2181,2060,2064,2056,0420
2066,2062,2235,2081,0424
1917,2056,2103,2021,0429
2142,2055,2030,2018,0433
2116,2052,1988,2047,0437
1892,2062,1957,2029,0442
2045,2047,2017,2053,0446
2184,2068,2188,2076,0450
1950,2057,2213,2061,0455
1994,2059,2155,2051,0459
2199,2063,2034,2041,0464
2000,2050,2004,2066,0468
1926,2039,2052,2057,0473
2175,2052,1995,2054,0477
2080,2054,1855,2009,0482
1928,2060,1929,2021,0487
2143,2063,1993,2037,0492
2168,2071,1951,2018,0496
1922,2056,1923,2045,0501
2046,2060,2199,2106,0505
2207,2076,2304,2119,0510
1969,2066,2228,2067,0514
1971,2049,2036,2015,0519
2198,2054,2014,2037,0523
2037,2052,1990,2031,0527
1923,2048,1943,2043,0532
2162,2059,2026,2062,0536
2107,2061,1972,2024,0541
1880,2064,1927,2029,0545
2121,2072,2091,2046,0550
2187,2078,2309,2131,0554
1944,2070,2239,2088,0559
2040,2061,2057,2078,0563
2212,2067,1851,2026,0568
1989,2072,1943,2052,0572
1971,2070,1922,2029,0577
2192,2060,2026,2104,0581
2048,2056,2110,2074,0586
1898,2054,2249,2066,0591
2135,2048,2088,2014,0595
2125,2048,2050,2050,0600
1905,2059,2078,2047,0605
2086,2064,1993,2038,0610
2179,2062,1919,2038,0614
1925,2052,1887,2008,0619
2001,2055,2123,2077,0624
2189,2052,1970,2012,0629
2004,2049,1898,2056,0634
1930,2052,2201,2064,0638
2181,2060,2415,2136,0643
2065,2065,2260,2076,0648
1915,2051,1892,2014,0653
2153,2059,1807,2003,0657
2131,2062,2060,2097,0662
1921,2064,1928,2030,0667
2035,2049,1868,2030,0672
2197,2064,2098,2030,0676
1955,2056,2442,2117,0681
2004,2067,2234,2081,0686
2203,2066,1944,2023,0691
2022,2064,1781,2024,0695
1938,2056,2077,2062,0700
2171,2058,2146,2051,0705
2084,2054,1982,2036,0709
1918,2058,1791,2029,0714
2121,2054,1913,2052,0718
2154,2058,2105,2053,0722
1930,2051,2038,2003,0727
2046,2073,2128,2077,0731
2193,2080,2297,2125,0735
1988,2079,2174,2101,0738
1987,2066,2017,2076,0742
2210,2072,1976,2041,0746
2044,2053,2080,2037,0750
1929,2057,2223,2086,0754
2163,2055,2122,2075,0758
2113,2063,1826,2040,0762
1892,2046,1903,2037,0767
2088,2057,2011,2018,0771
2155,2059,2113,2036,0775
1925,2052,1992,2018,0778
2033,2043,1824,2010,0782
2209,2064,1978,2035,0786
1991,2068,2154,2044,0790
1954,2054,2098,2027,0794
2176,2058,2089,2060,0798
2063,2065,2076,2113,0801
1916,2046,1933,2022,0805
2146,2058,1946,2036,0809
2124,2064,2205,2036,0813
1917,2066,2364,2106,0817
2082,2070,2232,2108,0821
2198,2080,1887,2042,0825
1949,2070,1880,2036,0830
2015,2073,2083,2071,0834
2202,2062,1919,2057,0838
1990,2055,1817,2017,0843
1940,2040,1957,2019,0847
2175,2053,2226,2059,0851
2084,2055,2031,1997,0855
1894,2044,2067,2045,0859
2127,2048,2000,2019,0864
2160,2066,1978,2027,0868
1903,2059,2136,2092,0872
2088,2068,2036,2070,0876
2190,2057,2218,2109,0880
1960,2058,2203,2072,0884
1980,2066,1943,2006,0888
2205,2052,1890,2042,0892
2030,2064,1964,2036,0896
1900,2028,1963,1998,0901
2186,2069,2133,2010,0905
2083,2070,2329,2159,0909
1911,2072,2152,2122,0913
2117,2065,1903,2061,0917
2159,2057,1836,2027,0921
1913,2064,2112,2024,0925
2048,2063,2182,2094,0929
2219,2065,2062,2049,0933
1984,2055,1661,1992,0937
1982,2057,2045,2075,0941
2195,2071,2252,2090,0945
2038,2055,2203,2083,0949
1920,2052,1977,2018,0953
2167,2064,1932,2066,0956
2113,2076,2135,2085,0960
1897,2064,2142,2067,0964
2080,2043,1835,1965,0967
2193,2049,2008,2049,0971
1922,2062,2272,2094,0974
2029,2058,2204,2099,0978
2207,2057,2012,2045,0981
1989,2049,1757,1970,0985
1933,2050,1989,2041,0988
2220,2071,2372,2088,0992
2059,2072,2192,2075,0995
1927,2063,1856,2017,0999
2120,2048,1691,2018,1002
2171,2064,2113,2068,1005
1907,2058,2218,2049,1009
2102,2064,2200,2074,1012
2205,2061,1792,2015,1015
1941,2061,1883,2059,1018
1986,2073,2439,2136,1021
2219,2060,2088,2035,1024
2000,2054,1919,2034,1027
1928,2051,1992,2033,1030
2180,2063,2183,2076,1033
2084,2063,2083,2057,1036
1903,2049,1773,1990,1039
2129,2044,1938,2018,1042
2145,2066,2186,2095,1045
1913,2070,2096,2089,1048
2059,2055,1959,2030,1051
2190,2046,1844,1983,1054
1948,2062,2162,2074,1056
1952,2061,2303,2097,1059
2204,2068,2048,2058,1062
2046,2059,1896,2055,1064
1934,2041,1998,2024,1067
2180,2061,1960,2056,1070
2097,2083,2336,2122,1072
1901,2050,1936,2018,1075
2100,2039,1908,1998,1078
2161,2067,2180,2103,1080
1911,2061,2194,2081,1083
2026,2063,2165,2097,1086
2199,2051,1865,1993,1089
1983,2047,1875,1980,1091
1958,2052,2172,2116,1094
2205,2055,1763,1983,1097
2039,2053,1873,2068,1100
1886,2055,2286,2039,1102
2188,2069,2324,2101,1105
2126,2057,1943,1999,1108
1891,2039,1752,2009,1111
2121,2064,2230,2060,1113
2193,2086,2293,2097,1116
1933,2059,2031,2082,1119
2022,2049,1727,2012,1121
2213,2059,2105,2034,1124
1973,2074,2338,2070,1127
1944,2067,2131,2078,1129
2196,2051,1621,1990,1132
2068,2052,1990,2049,1135
1902,2058,2368,2072,1137
2140,2077,2324,2090,1140
2146,2067,2030,2043,1143
1917,2042,1540,1957,1145
2071,2049,2025,2022,1148
2193,2073,2327,2106,1151
1938,2067,2224,2116,1154
1995,2048,1726,1984,1156
2165,2054,1840,2084,1159
2030,2071,2311,2062,1162
1935,2070,2284,2102,1165
2220,2070,2007,2035,1167
2112,2026,1670,1950,1170
1897,2065,2047,2055,1173
2112,2067,2265,2080,1176
2158,2062,2033,2043,1178
1913,2051,1827,2023,1181
2040,2054,2169,2045,1184
2197,2068,2161,2082,1186
1965,2067,2183,2075,1189
1970,2060,1705,1973,1192
2210,2063,1854,2041,1194
2027,2078,2396,2151,1197
1925,2063,2219,2100,1200
2184,2059,1876,2016,1202
2112,2043,1829,2058,1205
1889,2059,2168,2048,1207
2109,2069,2260,2099,1210
2182,2064,1984,2022,1212
1926,2040,1621,1986,1215
2025,2053,2273,2094,1217
2202,2065,2222,2065,1220
1983,2067,2138,2081,1222
1951,2045,2057,2040,1225
2205,2058,2066,2071,1227
2057,2056,2088,2034,1230
1920,2041,1698,1961,1232
2162,2055,1856,1962,1235
2126,2066,2230,2127,1237
1895,2068,2265,2100,1239
2070,2028,1600,1929,1241
2208,2061,1788,2003,1244
1927,2067,2461,2138,1246
2009,2091,2456,2126,1248
2218,2058,2009,2036,1250
1988,2024,1449,1968,1253
1937,2052,1995,2075,1255
2184,2081,2494,2150,1258
2077,2090,2150,2102,1260
1898,2043,1758,1983,1263
2150,2054,2014,1986,1265
2149,2067,2182,2075,1268
1901,2047,2002,2038,1271
2076,2039,1917,2022,1273
2189,2074,2165,2104,1276
1940,2065,2239,2067,1278
2005,2066,1937,2035,1281
2199,2022,1583,2020,1284
2010,2075,2347,2075,1286
1930,2066,2368,2106,1289
2182,2073,2316,2096,1291
2084,2006,1282,1860,1294
1919,2068,2001,2077,1296
2112,2060,2332,2125,1299
2168,2086,2395,2149,1301
1932,2059,1728,1976,1304
2031,2012,1528,1934,1306
2208,2092,2273,2078,1309
1953,2081,2488,2149,1311
1965,2061,2296,2100,1314
2216,2040,1735,1983,1316
2032,2026,1604,1957,1319
1915,2071,2218,2077,1321
2169,2077,2338,2120,1323
2119,2079,2296,2090,1326
1901,2054,1835,1993,1328
2075,2009,1457,1951,1330
2194,2074,2228,2112,1332
1921,2043,2312,2085,1335
2023,2074,2284,2084,1337
2206,2040,1626,1981,1339
1990,2049,1919,2002,1341
1941,2063,2177,2037,1343
2205,2081,2366,2114,1345
2065,2047,1633,1926,1347
1904,2030,1524,1954,1349
2142,2065,2348,2070,1351
2127,2099,2486,2188,1352
1901,2063,2098,2048,1354
2094,2050,1826,2038,1356
2192,2070,2104,2048,1358
1942,2107,2336,2150,1360
2004,2070,2069,2027,1362
2193,2019,1548,1927,1364
2013,2075,2152,2109,1366
1939,2074,2051,2058,1368
2171,2051,2005,1995,1370
2100,2067,1993,2051,1372
1895,2057,2135,2050,1374
2160,2092,2240,2133,1376
2145,2004,1628,1917,1378
1919,2040,1992,2004,1380
2038,2080,2290,2105,1381
2217,2111,2351,2150,1383
1982,2076,1882,2026,1385
1959,1993,1506,1906,1387
2214,2080,2259,2079,1388
2023,2078,2255,2052,1390
1895,1988,1359,1819,1392
2242,2081,1872,1999,1393
2080,2082,2431,2123,1395
1911,2139,2695,2234,1396
2116,2080,2082,2024,1398
2138,2010,1323,1893,1399
1927,2079,2191,2051,1401
2037,2096,2454,2192,1402
2212,2096,2261,2150,1404
1980,2060,1880,2036,1405
1967,2064,1834,1983,1407
2224,2082,1956,2042,1408
2062,2077,2016,2022,1410
1916,2062,2026,2021,1411
2163,2087,2128,2060,1412
2118,2079,1943,2042,1413
1888,1998,1330,1864,1414
2121,2097,2259,2120,1415
2175,2103,2318,2133,1416
1932,2118,2540,2151,1417
2041,2070,1941,2014,1418
2209,2066,1759,1968,1418
1983,2079,2029,2055,1419
1940,2085,2227,2092,1419
2198,2080,2121,2068,1420
2074,2073,1883,2018,1420
1908,2061,2141,2060,1420
2146,2050,1904,2012,1421
2129,2023,1708,1935,1421
1919,2094,2248,2114,1421
2071,2078,2221,2096,1421
2198,2090,2356,2133,1421
1933,2048,2016,2034,1421
2000,2052,1828,2003,1421
2218,2057,2001,2067,1421
2015,2066,2108,2075,1421
1926,2051,2005,2036,1421
2190,2049,2014,2053,1420
2072,2037,1929,2039,1420
1906,2050,1991,2040,1420
2120,2045,2096,2029,1420
2178,2072,2195,2095,1419
1914,2054,2130,2069,1419
2060,2052,2048,2082,1418
2198,2044,1986,2043,1418
1954,2063,2048,2016,1417
1971,2039,1993,2050,1416
2203,2038,2107,2055,1416
2037,2037,2010,2048,1415
1913,2039,1980,2053,1414
2177,2042,2089,2063,1412
2108,2036,2085,2052,1411
1896,2026,2058,2026,1410
2109,2027,1947,2029,1408
2174,2046,1977,2077,1406
1913,2046,2148,2049,1404
2038,2017,1903,1969,1402
2218,2082,2193,2132,1400
1967,2058,2151,2073,1398
1969,2077,2188,2104,1395
2173,2035,2036,2000,1393
2065,2064,1930,2025,1391
1907,2054,1971,2071,1389
2168,2067,2139,2048,1387
2135,2057,2026,2049,1384
1893,2050,2057,2029,1383
2091,2066,2032,2043,1380
2191,2062,2026,2041,1379
1925,2050,2000,2035,1377
2002,2049,2015,2049,1375
2204,2044,1980,2047,1373
1994,2044,2032,2045,1371
1934,2050,2051,2043,1368
2189,2049,1888,2011,1366
2088,2071,2065,2094,1363
1903,2070,2111,2054,1360
2127,2058,2132,2034,1357
2126,2050,2020,1978,1353
1899,2055,1992,2044,1350
2060,2068,2193,2108,1346
2206,2074,2152,2087,1342
1950,2069,2080,2080,1338
1991,2056,1964,2025,1335
2206,2064,2023,2030,1331
2016,2063,2069,2060,1327
1928,2056,2006,2042,1324
2180,2050,1993,2040,1320
2072,2053,1993,2031,1317
1886,2056,2022,2037,1313
2121,2049,2046,2042,1309
2171,2056,2012,2025,1306
1914,2047,1928,2009,1302
2042,2050,2112,2092,1298
2197,2065,2135,2082,1294
1967,2063,2190,2074,1289
1995,2062,1990,2009,1285
2212,2050,1987,2041,1281
2027,2044,2121,2087,1276
1914,2042,2071,2047,1272
2166,2054,2026,2054,1268
2114,2051,1990,2043,1264
1898,2045,1980,2041,1259
2087,2060,2080,2059,1255
2176,2057,2053,2044,1251
1929,2053,2026,2031,1247
2031,2044,2007,2053,1242
2206,2056,2014,2056,1238
1974,2059,2059,2066,1234
1972,2050,2015,2032,1229
2208,2056,2021,2026,1224
2044,2048,1981,2037,1220
1912,2048,2139,2072,1215
2153,2049,2090,2076,1210
2133,2059,2026,2062,1205
1903,2057,1959,2063,1200
2075,2045,2057,2064,1195
2191,2064,2187,2076,1191
1939,2051,2133,2049,1186
2012,2052,2037,2047,1181
2205,2054,1945,2042,1177
1984,2056,2023,2042,1172
1946,2049,2053,2059,1168
2200,2066,2057,2063,1163
2095,2058,2070,2066,1159
1899,2052,2019,2037,1155
2142,2053,1954,2026,1150
2141,2059,1989,2048,1146
1903,2051,2102,2066,1142
2083,2060,2084,2064,1137
2206,2063,2091,2062,1133
1983,2055,1987,2024,1129
1986,2049,1957,2044,1125
2186,2057,2097,2055,1120
2019,2072,2114,2078,1116
1923,2053,2077,2056,1112
2184,2057,1987,2051,1108
2090,2048,1966,2023,1104
1897,2046,2064,2032,1101
2103,2056,2086,2030,1097
2172,2061,2046,2062,1093
1913,2052,2022,2064,1089
2055,2057,2017,2042,1086
2209,2063,2001,2042,1082
1967,2056,1938,2036,1079
1967,2061,2004,2052,1075
2218,2068,2150,2074,1071
2048,2076,2154,2093,1068
1929,2058,2144,2064,1064
2162,2056,2053,2047,1061
2107,2057,2037,2036,1057
1899,2056,2021,2041,1054
2106,2060,2021,2048,1051
2185,2056,2009,2055,1048
1932,2053,1999,2046,1044
2020,2052,2034,2032,1041
2202,2059,2063,2050,1038
1971,2056,2020,2047,1035
1968,2055,2015,2057,1031
2202,2060,2056,2074,1028
2074,2062,2016,2052,1024
1918,2049,1863,2009,1020
2138,2056,2062,2054,1016
2123,2068,2207,2112,1012
1896,2060,2227,2090,1008
2067,2059,2053,2047,1004
2191,2063,1961,2016,1000
1944,2050,2079,2055,0996
2000,2054,2122,2065,0993
2204,2056,2050,2053,0989
2002,2058,2031,2042,0985
1912,2057,2019,2044,0982
2192,2062,2012,2049,0978
2088,2062,2011,2049,0975
1932,2061,2044,2048,0971
2140,2056,2030,2048,0968
2156,2059,2020,2046,0964
1905,2048,2010,2053,0960
2044,2054,2039,2060,0956
2203,2060,1904,1992,0952
1951,2048,1864,2011,0948
1976,2060,2158,2075,0944
2200,2066,2219,2139,0940
2038,2070,2191,2104,0935
1933,2056,2009,2047,0931
2180,2063,2014,2020,0926
2106,2063,2234,2092,0922
1902,2054,2119,2051,0918
2109,2048,1996,2034,0914
2147,2053,2011,2040,0910
1922,2056,2018,2039,0907
2050,2058,2004,2041,0904
2213,2059,2008,2042,0900
1989,2060,2026,2051,0897
1965,2057,2017,2054,0894
2196,2065,2032,2056,0891
2056,2068,2048,2065,0888
1915,2054,2042,2046,0885
2151,2055,1978,2045,0881
2111,2054,1949,2038,0878
1902,2056,2056,2052,0874
2083,2054,2121,2058,0871
2180,2062,2031,2045,0867
1932,2080,1947,2008,0863
2017,2060,2068,2052,0859
2208,2063,2228,2092,0855
2000,2080,2204,2092,0851
1939,2054,2046,2064,0847
2199,2061,1986,2040,0843
2080,2065,2048,2055,0839
1901,2061,2035,2066,0835
2156,2064,2010,2056,0831
2161,2063,2043,2061,0827
1916,2061,2043,2047,0822
2071,2054,2029,2044,0818
2200,2066,2037,2048,0814
1945,2054,2031,2033,0810
1993,2059,2016,2032,0805
2204,2056,1959,2031,0801
2021,2060,2009,2060,0796
1930,2055,2080,2057,0791
2174,2060,2149,2053,0786
2077,2056,2105,2065,0781
1896,2053,1982,2023,0776
2120,2058,2010,2057,0770
2163,2058,2114,2050,0765
1921,2062,2208,2071,0759
2043,2060,2135,2071,0754
2188,2056,2031,2045,0749
1969,2053,1991,2030,0744
1987,2052,2006,2043,0739
2198,2048,1969,2043,0734
2039,2048,1987,2051,0729
1918,2040,2029,2055,0724
2163,2048,2079,2054,0719
2121,2061,1982,2035,0714
1904,2059,1938,2040,0709
2095,2055,2060,2068,0704
2174,2060,2185,2076,0699
1944,2062,2067,2044,0694
2025,2050,1907,2009,0689
2189,2054,1980,2043,0684
1993,2070,2226,2110,0679
1968,2063,2250,2097,0673
2206,2068,2086,2058,0668
2067,2059,1961,2041,0663
1919,2057,1992,2048,0658
2133,2058,2064,2057,0653
2129,2060,2059,2047,0648
1918,2054,2029,2037,0644
2076,2058,1998,2031,0639
2187,2063,2001,2051,0635
1947,2067,1999,2053,0630
2007,2060,2044,2049,0625
2206,2060,2002,2035,0621
1999,2058,1950,2041,0616
1941,2052,2007,2037,0612
2180,2058,2175,2082,0607
2082,2061,2161,2054,0602
1915,2048,2034,2020,0598
2108,2057,2011,2051,0593
2144,2060,2150,2103,0589
1915,2056,2151,2082,0584
2066,2053,2025,2044,0580
2207,2059,1935,2036,0576
1951,2056,2052,2046,0572
1989,2058,2072,2052,0567
2198,2066,2040,2040,0563
2032,2065,1986,2042,0560
1923,2059,1945,2043,0556
2162,2061,2012,2062,0552
2091,2060,2048,2055,0549
1929,2058,2017,2043,0545
2118,2054,1977,2049,0541
2171,2060,2037,2065,0538
1933,2061,2132,2059,0534
2038,2062,2174,2057,0531
2200,2061,2052,2038,0527
1980,2061,1895,2037,0524
1970,2055,1930,2054,0520
2185,2059,2097,2060,0517
2043,2056,2214,2061,0514
1926,2056,2089,2050,0510
2158,2065,2055,2049,0507
2119,2060,2047,2065,0504
1913,2057,2085,2052,0500
2082,2052,2069,2054,0497
2175,2067,2008,2052,0494
1944,2062,2044,2052,0492
2015,2056,2032,2047,0489
2195,2061,2013,2045,0486
2016,2064,2020,2059,0483
1961,2060,2032,2050,0481
2185,2056,2031,2053,0478
2072,2066,2031,2050,0476
1915,2068,2031,2041,0473
2141,2060,2028,2056,0471
2140,2060,2026,2058,0468
1916,2056,1997,2038,0466
2078,2070,2044,2047,0463
2187,2064,2053,2047,0461
1951,2051,1995,2045,0458
1995,2059,1988,2049,0455
2200,2061,2095,2075,0452
2016,2054,2138,2044,0449
1934,2052,2121,2054,0447
2182,2056,2079,2048,0444
2083,2060,2052,2044,0440
1922,2053,2090,2063,0438
2117,2052,2097,2058,0435
2148,2054,2073,2066,0432
1932,2050,2045,2048,0429
2049,2052,2012,2054,0426
2196,2066,2011,2050,0424
1963,2058,2020,2047,0421
1976,2058,2022,2058,0419
2186,2057,2008,2051,0416
2038,2060,2028,2055,0414
1915,2055,2023,2037,0412
2148,2052,1995,2035,0409
2127,2076,2017,2059,0407
1913,2057,2014,2046,0405
2105,2062,2090,2056,0403
2160,2065,2104,2065,0400
1944,2069,2031,2046,0398
2016,2046,1920,2030,0396
2208,2080,2017,2071,0394
1995,2062,2124,2070,0391
1957,2051,2189,2050,0389
2179,2054,2117,2034,0387
2050,2061,2052,2039,0384
1911,2048,2028,2038,0382
2145,2065,2037,2054,0380
2123,2080,2016,2049,0377
1920,2062,2012,2049,0375
2078,2057,2024,2031,0373
2178,2068,2025,2053,0371
1957,2064,2038,2046,0369
2009,2053,2027,2050,0367
2189,2063,2033,2051,0364
2002,2058,2022,2051,0362
1963,2071,2032,2065,0360
2181,2068,2039,2061,0358
2072,2061,2022,2052,0355
1906,2040,2007,2034,0353
2116,2050,1986,2044,0350
2161,2079,2029,2062,0348
1927,2054,2112,2054,0345
2063,2054,2154,2048,0342
2156,2046,2115,2024,0340
1955,2048,2043,2034,0337
1988,2061,1973,2047,0334
2201,2065,2064,2066,0331
2034,2060,2075,2056,0328
1940,2059,2075,2043,0325
2162,2057,2054,2052,0322
2090,2058,2012,2048,0319
1907,2048,1995,2033,0316
2090,2047,1992,2032,0314
2159,2071,1993,2065,0311
1935,2060,2064,2067,0308
2052,2058,2104,2061,0306
2194,2073,2101,2063,0303
1986,2068,2067,2049,0301
1960,2050,2011,2046,0298
2229,2081,2053,2081,0296
2047,2061,2050,2054,0293
1940,2063,2046,2055,0291
2149,2060,2012,2044,0288
2091,2038,1976,2025,0286
1926,2071,1990,2053,0283
2094,2064,2030,2043,0281
2164,2060,2065,2049,0278
1948,2065,2019,2052,0275
2017,2052,2045,2061,0273
2192,2067,2128,2053,0270
2009,2066,2150,2053,0268
1958,2055,2142,2045,0266
2193,2064,2087,2061,0264
2068,2060,2048,2058,0261
1938,2069,2047,2056,0260
2155,2076,2028,2060,0258
2142,2068,2025,2060,0256
1919,2053,2014,2053,0255
2077,2057,2023,2053,0253
2166,2046,2009,2048,0252
1966,2065,2035,2056,0251
1996,2064,2033,2041,0250
2183,2048,2034,2029,0248
2023,2079,2051,2053,0247
1951,2053,2047,2046,0246
2171,2056,2028,2029,0245
2089,2070,2078,2080,0244
1920,2052,2039,2041,0243
2117,2076,2059,2073,0242
2143,2054,2019,2015,0241
1927,2053,2043,2047,0240
2047,2059,2038,2059,0239
2199,2066,2064,2094,0239
1975,2057,2022,2044,0238
1987,2058,2045,2060,0237
2191,2060,2046,2060,0236
2028,2056,2048,2063,0235
1939,2062,2044,2042,0235
2167,2064,2063,2067,0234
2103,2072,2059,2062,0233
1935,2056,2050,2054,0232
2112,2070,2042,2050,0231
2142,2046,2031,2041,0230
1942,2064,2044,2050,0229
2037,2058,2045,2058,0228
2191,2057,2046,2055,0227
1980,2052,2040,2045,0225
1968,2050,2034,2040,0224
2159,2028,2023,2026,0223
2042,2044,2034,2043,0221
1930,2054,2045,2037,0220
2153,2065,2056,2051,0219
2122,2065,2039,2058,0217
1924,2068,2040,2052,0216
2074,2057,2036,2038,0214
2166,2059,2048,2048,0213
1949,2062,2036,2050,0211
1996,2041,2023,2039,0210
2174,2052,2032,2042,0208
2013,2066,2050,2052,0207
1919,2031,2023,2026,0205
2203,2075,2061,2064,0204
2071,2056,2045,2048,0202
1925,2065,2052,2057,0201
2131,2056,2050,2049,0199
2118,2042,2037,2041,0198
1904,2055,2048,2048,0197
2062,2053,2042,2049,0195
2180,2058,2046,2050,0194
1935,2045,2037,2040,0193
2004,2052,2048,2056,0192
2184,2056,2036,2044,0191
2020,2061,2045,2054,0190
1932,2043,2045,2055,0189
2165,2056,2029,2045,0188
2088,2062,2064,2071,0187
1919,2050,2025,2041,0186
2090,2032,2024,2036,0185
2146,2056,2038,2053,0185
1927,2058,2053,2049,0184
2042,2050,2039,2040,0184
2160,2041,2032,2038,0183
1977,2067,2053,2061,0182
1978,2059,2041,2047,0182
2205,2071,2056,2063,0181
2047,2059,2051,2052,0180
1934,2057,2047,2051,0179
2155,2060,2041,2049,0179
2094,2045,2031,2044,0178
1913,2061,2043,2050,0177
2088,2061,2040,2049,0176
2170,2072,2052,2058,0176
1938,2051,2035,2041,0175
2035,2063,2047,2038,0174
2183,2058,2069,2076,0173
1994,2061,2049,2049,0172
1978,2061,2047,2066,0172
2197,2072,2052,2062,0171
2041,2050,2048,2034,0170
1927,2060,2020,2047,0169
2133,2056,2043,2068,0169
2137,2069,2020,2038,0168
1924,2056,2051,2070,0167
2063,2059,2037,2043,0166
2168,2053,2047,2046,0165
1956,2063,2042,2042,0164
1978,2038,2027,2024,0163
2208,2063,2057,2058,0161
2014,2061,2046,2046,0160
1941,2054,2036,2042,0158
2163,2048,2050,2062,0156
2063,2038,2026,2040,0155
1909,2047,2033,2040,0153
2127,2058,2044,2038,0151
2148,2059,2055,2059,0149
1905,2048,2025,2006,0147
2067,2061,2089,2105,0145
2180,2048,2007,1965,0143
1981,2074,2111,2097,0140
1985,2053,2084,2039,0138
2206,2078,2072,2084,0136
2044,2057,1994,2078,0134
1955,2079,2052,2105,0132
2178,2069,2013,2079,0129
2102,2065,2073,2073,0126
1917,2062,2065,2076,0123
2126,2069,2060,2065,0120
2173,2074,2072,2062,0116
1924,2056,2060,2051,0112
2030,2048,2041,2032,0107
2203,2061,2044,2037,0102
1972,2053,2039,2035,0097
1945,2036,2015,2019,0092
2205,2056,2042,2045,0087
2033,2054,2048,2044,0082
1925,2056,2044,2049,0077
2164,2052,2042,2048,0072
2114,2060,2042,2059,0068
1926,2073,2056,2064,0063
2086,2051,2053,2038,0059
2161,2045,2029,2031,0056
1932,2047,2026,2030,0053
2014,2042,2030,2040,0050
2206,2053,2045,2053,0048
1980,2037,2029,2019,0046
1958,2059,2042,2060,0044
2170,2048,2048,2054,0043
2099,2087,2088,2078,0042
1958,2089,2055,2048,0041
2185,2112,2096,2095,0041
2185,2108,2084,2112,0041
1952,2082,2064,2061,0041
2086,2070,2057,2039,0041
2182,2058,2037,2068,0041
1926,2030,2012,2043,0041
1975,2016,2000,2027,0041
2154,2005,1973,1982,0041
1996,2036,2012,2024,0041
1913,2030,2009,2017,0041
2152,2031,2007,2023,0041
2061,2045,2040,2025,0041
1921,2070,2041,2050,0041
2115,2052,2030,2041,0041
2148,2061,2040,2047,0041
1906,2048,2033,2040,0041
2037,2039,2029,2030,0041
2183,2056,2041,2046,0041
1964,2058,2034,2041,0041
1983,2052,2039,2040,0041
2166,2031,2040,2033,0041
2032,2063,2057,2069,0040
1927,2054,2026,2039,0040
2161,2048,2042,2047,0040
2116,2054,2076,2049,0040
1904,2052,2008,2009,0040
2098,2052,2041,2031,0040
2183,2076,2054,2099,0040
1929,2068,2055,2072,0040
2039,2066,2049,2050,0040
2216,2074,2041,2063,0040
1985,2057,2053,2072,0040
1974,2080,2060,2066,0040
2208,2070,2054,2061,0039
2061,2060,2051,2047,0039
1912,2043,2025,2033,0039
2159,2055,1989,2048,0039
2128,2067,1998,2046,0039
1922,2069,1996,2067,0039
2092,2061,2056,2077,0039
2177,2057,2137,2068,0039
1931,2053,2159,2043,0039
2015,2054,2123,2036,0039
2176,2051,2025,2032,0039
1995,2061,1991,2056,0039
1935,2051,1992,2034,0039
2176,2052,1998,2031,0039
2070,2057,2032,2062,0039
1921,2066,2058,2072,0039
2136,2052,2045,2043,0039
2138,2055,1958,2031,0039
1923,2070,1981,2051,0040
2068,2062,2066,2074,0040
2196,2080,2141,2059,0040
1973,2065,2136,2052,0041
1994,2060,2082,2045,0042
2208,2066,2063,2053,0043
2036,2063,2112,2070,0044
1929,2049,2048,2034,0046
2180,2063,2010,2039,0048
2097,2054,1972,2031,0050
1919,2062,2021,2057,0053
2091,2053,2065,2074,0055
2164,2068,1985,2052,0059
1929,2062,1898,2049,0062
2050,2066,1997,2065,0065
2197,2067,2169,2087,0069
1978,2069,2209,2064,0073
1977,2062,2051,2029,0077
2200,2057,1978,2021,0081
2042,2058,2061,2053,0085
1916,2044,2149,2057,0089
2154,2057,2133,2082,0094
2103,2052,1973,2029,0098
1926,2070,1930,2042,0102
2112,2080,1940,2055,0107
2188,2079,2133,2080,0112
1953,2070,2188,2078,0116
2043,2076,2096,2043,0121
2239,2092,1931,2063,0126
2023,2090,1909,2086,0131
1983,2081,2025,2069,0137
2209,2072,1986,2043,0142
2056,2057,1934,1993,0147
1905,2052,1915,2039,0152
2118,2037,2268,2094,0158
2083,2023,2384,2095,0163
1859,2008,2261,2026,0168
2016,2002,2046,1990,0174
2136,2019,1921,1989,0180
1924,2035,1957,2018,0185
2001,2051,1952,2027,0191
2206,2061,1921,2030,0197
2025,2069,2001,2061,0204
1959,2069,1930,2051,0210
2192,2069,1840,2029,0216
2091,2068,1885,2060,0223
1919,2052,2117,2064,0230
2122,2049,2323,2091,0236
2144,2058,2202,2033,0243
1918,2060,1999,2050,0249
2053,2054,1927,2042,0256
2181,2060,2015,2074,0262
1963,2049,2095,2076,0268
1982,2060,2132,2062,0274
2191,2070,2067,2061,0280
2049,2075,1940,2040,0286
1936,2055,1919,2061,0292
2182,2071,2080,2075,0298
2118,2068,2245,2080,0304
1922,2067,2165,2053,0310
2080,2049,1900,2010,0316
2169,2053,1834,2028,0322
1943,2055,2024,2054,0328
2048,2050,2173,2073,0333
2223,2054,2075,2061,0339
1985,2045,1830,1975,0345
1944,2037,1855,2005,0351
2173,2045,2166,2056,0357
2034,2049,2422,2131,0362
1907,2063,2223,2087,0368
2135,2064,1980,2043,0374
2114,2062,1942,2051,0380
1930,2057,2033,2032,0385
2081,2065,2102,2063,0391
2176,2073,1980,2041,0397
1964,2070,1934,2055,0403
2019,2074,1903,2028,0408
2202,2071,1963,2049,0414
2011,2058,2089,2055,0420
1955,2059,2160,2073,0426
2159,2064,2136,2075,0431
2058,2058,2070,2058,0437
1922,2053,2025,2037,0443
2129,2045,2045,2034,0448
2132,2068,2064,2056,0454
1928,2064,2126,2067,0460
2055,2080,2025,2045,0466
2184,2067,1921,2029,0472
1951,2045,1970,2023,0477
1987,2058,2071,2020,0483
2186,2062,2089,2054,0489
2007,2051,1967,2014,0495
1921,2050,1978,2061,0501
2154,2057,2166,2054,0507
2093,2064,2229,2096,0513
1913,2062,2105,2078,0519
2129,2053,1968,2053,0525
2162,2073,1970,2038,0531
1926,2063,1991,2028,0537
2062,2064,1991,2028,0543
2203,2080,2043,2069,0549
1964,2055,2157,2055,0555
1967,2055,2119,2062,0560
2193,2057,1999,2018,0566
2039,2062,1884,1993,0572
1920,2058,2019,2033,0578
2151,2061,2154,2109,0583
2104,2062,1926,2022,0589
1907,2047,1914,2029,0595
2099,2056,2036,2007,0600
2178,2068,2219,2095,0606
1910,2076,2114,2101,0611
2024,2055,2034,2067,0616
2224,2073,2086,2089,0622
1998,2058,2093,2038,0627
1964,2056,2089,2045,0633
2196,2062,2109,2065,0639
2048,2064,2086,2061,0644
1926,2051,1919,2028,0650
2149,2064,1854,2050,0655
2119,2057,2037,2064,0661
1891,2051,1942,1984,0666
2092,2039,1876,1964,0672
2182,2059,1963,2011,0677
1942,2055,2324,2124,0682
2005,2071,2290,2161,0687
2211,2062,1993,2071,0693
2021,2071,1851,2033,0698
1947,2064,2032,2054,0703
2189,2070,2294,2091,0708
2083,2070,2114,2074,0714
1909,2050,1925,2019,0719
2136,2049,1924,2048,0724
2142,2053,2192,2073,0729
1899,2054,2158,2043,0735
2048,2040,1915,1985,0740
2177,2045,1710,1975,0745
1959,2062,2012,2058,0750
1970,2064,2209,2121,0755
2206,2057,2040,2055,0759
2028,2044,1857,1985,0764
1917,2057,2104,2046,0769
2181,2063,2306,2107,0773
2092,2075,2199,2081,0778
1901,2063,1888,2038,0783
2113,2050,1899,2025,0787
2167,2051,2066,2061,0792
1915,2063,2187,2095,0796
2035,2054,1965,2012,0801
2185,2054,1948,2037,0806
1974,2067,2040,2049,0810
1995,2063,2141,2054,0815
2197,2065,2125,2081,0819
2066,2063,2050,2068,0824
1926,2043,1822,1962,0828
2143,2051,1944,2047,0832
2127,2069,2244,2050,0837
1929,2063,2261,2111,0841
2104,2065,2038,2069,0845
2179,2061,1847,2038,0849
1931,2055,1782,1988,0853
2020,2046,2125,2103,0857
2198,2061,2240,2034,0861
1999,2067,2294,2090,0864
1961,2063,1947,2015,0868
2177,2064,1895,2047,0872
2066,2056,2063,2076,0876
1914,2054,2154,2063,0880
2115,2069,2227,2066,0883
2162,2060,1894,2014,0887
1914,2056,1781,2019,0891
2088,2053,2155,2074,0895
2186,2074,2173,2097,0898
1954,2055,2109,2056,0901
2012,2049,1797,1981,0905
2204,2063,1901,2030,0908
2004,2074,2315,2114,0911
1933,2064,2146,2072,0915
2161,2050,1937,2075,0918
2084,2057,1994,2017,0921
1907,2054,2268,2122,0925
2128,2052,2077,2034,0928
2157,2047,1787,2033,0931
1911,2048,1925,1998,0935
2041,2057,2228,2088,0938
2188,2074,2249,2075,0941
1979,2054,1888,2001,0945
1972,2044,1678,1992,0948
2211,2044,2103,2043,0951
2034,2064,2245,2059,0954
1928,2069,2350,2138,0957
2186,2071,2067,2063,0960
2122,2068,1778,2001,0964
1912,2043,1891,2050,0967
2108,2056,2253,2059,0970
2174,2072,2145,2073,0973
1918,2056,1922,2030,0976
2011,2042,1827,2034,0979
2201,2058,2117,2012,0982
1975,2054,2222,2059,0985
1959,2059,2158,2053,0988
2199,2054,1801,2005,0991
2059,2069,1983,2065,0994
1914,2067,2198,2079,0996
2164,2079,2207,2108,0999
2134,2063,1845,1993,1002
1873,2048,1676,2020,1005
2123,2050,2237,2061,1007
2183,2077,2212,2095,1010
1959,2072,2284,2107,1013
2016,2050,1827,1996,1016
2194,2065,1964,2088,1018
1987,2071,2294,2087,1021
1945,2061,2214,2082,1024
2191,2056,2083,2051,1027
2047,2072,1746,2006,1030
1858,2039,1930,2046,1032
2197,2048,2035,2059,1035
2149,2058,2228,2047,1038
1937,2068,2117,2055,1041
2082,2064,1873,2030,1043
2147,2050,1847,2051,1046
1952,2056,2088,2035,1048
1997,2050,2205,2096,1051
2218,2072,2222,2053,1053
2006,2056,1768,1983,1055
1909,2035,1652,2029,1057
2179,2070,2311,2085,1059
2116,2078,2416,2118,1061
1918,2098,2393,2150,1064
2140,2062,1922,2053,1066
2154,2052,1754,2012,1068
1908,2052,2005,2035,1070
2049,2050,2183,2054,1072
2211,2057,2049,2051,1075
1973,2055,2001,2009,1077
1960,2051,1870,2050,1079
2192,2060,2024,2041,1081
2042,2053,2093,2072,1083
1916,2050,2124,2047,1085
2169,2054,2000,2041,1087
2105,2052,1798,1999,1088
1879,2049,1912,2035,1090
2120,2064,2261,2064,1092
2161,2068,2189,2083,1093
1933,2059,2089,2049,1094
2039,2048,1802,2007,1095
2200,2050,1933,2009,1096
1960,2072,2192,2091,1098
1963,2067,2305,2105,1099
2202,2069,2130,2088,1099
2068,2070,1939,2037,1100
1920,2049,1767,1982,1101
2145,2057,1991,2061,1102
2128,2070,2278,2066,1103
1900,2058,2236,2061,1104
2080,2060,2060,2061,1104
2192,2056,1873,2046,1105
1921,2041,1896,2029,1106
2014,2049,1946,1997,1106
2201,2063,2099,2076,1107
2007,2071,2119,2065,1107
1965,2043,1904,2012,1108
2195,2055,1646,2042,1108
2062,2066,2349,2081,1108
1903,2070,2338,2075,1109
2129,2075,2333,2079,1109
2150,2057,1837,2031,1110
1897,2052,1887,2045,1110
2064,2058,2152,2088,1111
2198,2069,2159,2063,1111
1957,2064,2000,2034,1112
1986,2051,1879,2025,1113
2210,2058,2026,2027,1113
2014,2052,2050,2060,1114
1921,2048,2101,2034,1115
2204,2062,1855,2008,1116
2072,2054,1744,2059,1116
1900,2055,2248,2026,1117
2108,2054,2151,2027,1118
2199,2076,2260,2048,1119
1910,2053,1852,2017,1119
2053,2066,2043,2087,1120
2216,2058,2137,2078,1120
1957,2060,2058,2052,1121
1959,2053,2004,2036,1122
2221,2052,1860,2018,1123
2031,2040,1906,2049,1123
1896,2061,2173,2018,1124
2173,2067,2127,2084,1124
2121,2075,2227,2057,1125
1886,2036,1747,1939,1126
2090,2056,1865,2015,1126
2178,2065,2286,2124,1127
1935,2076,2214,2116,1128
2032,2063,1956,2057,1129
2182,2034,1817,2043,1129
1984,2078,2246,2053,1130
1970,2065,2210,2082,1131
2225,2081,2199,2052,1132
2102,2080,1946,2048,1134
1906,2056,1813,2050,1135
2139,2071,2037,2049,1136
2140,2063,2105,2062,1138
1916,2058,2078,2032,1139
2075,2055,1929,2012,1140
2175,2045,1854,2017,1142
1923,2053,2067,2012,1143
1999,2049,2054,2067,1144
2188,2046,2060,2075,1146
1981,2041,1937,2084,1147
1928,2060,2335,2004,1148
2186,2070,2233,2104,1150
2097,2071,2166,2059,1151
1908,2048,1833,2031,1153
2132,2046,1897,2032,1155
2159,2054,1991,2036,1156
1900,2058,2126,2066,1158
2057,2060,2083,2079,1160
2204,2058,2004,2043,1162
1964,2055,1794,2025,1164
1961,2050,2182,2029,1166
2207,2073,2168,2089,1168
2038,2066,2145,2035,1171
1914,2041,1764,2003,1173
2154,2056,2000,2058,1175
2146,2076,2272,2084,1177
1892,2075,2287,2113,1179
2136,2068,1984,2052,1181
2201,2054,1754,2019,1184
1903,2050,1963,2033,1186
2021,2065,2201,2080,1188
2214,2062,2160,2067,1190
1976,2073,2115,2060,1192
1955,2056,1869,2014,1195
2206,2064,1727,2048,1197
2051,2066,2062,2061,1199
1898,2066,2196,2017,1201
2165,2079,2282,2108,1204
2132,2056,1965,2013,1206
1881,2038,1889,2117,1208
2083,2054,2173,2049,1210
2202,2076,2231,2062,1212
1917,2060,2177,2058,1214
2017,2054,1864,2006,1216
2219,2040,1742,1999,1218
2000,2069,2146,2089,1220
1938,2052,2162,2035,1223
2206,2070,2262,2115,1225
2073,2060,1982,2032,1227
1897,2045,1688,2019,1229
2157,2058,2151,2072,1232
2150,2069,2095,2009,1234
1889,2062,2173,2056,1236
2076,2055,1884,2020,1238
2205,2042,1674,2018,1240
1941,2055,2228,2035,1242
1990,2071,2236,2091,1244
2223,2078,2224,2098,1246
2013,2062,2071,2101,1248
1919,2034,1722,2004,1250
2189,2050,1989,2077,1252
2089,2074,2199,2028,1254
1893,2061,2141,2054,1256
2120,2056,2143,2053,1257
2171,2045,1730,2004,1259
1910,2059,1899,2041,1261
2047,2070,2277,2048,1263
2221,2079,2307,2098,1265
1970,2073,2037,2022,1267
1955,2039,1712,2028,1269
2207,2063,2127,2056,1271
2026,2059,2096,2053,1273
1899,2063,2207,2078,1275
2187,2076,1917,2006,1277
2119,2050,1890,2024,1279
1887,2053,2052,2079,1281
2102,2062,2157,2076,1283
2181,2066,2179,2096,1285
1920,2065,2047,2055,1287
2026,2037,1618,1947,1289
2216,2048,2046,2061,1291
1973,2073,2278,2105,1293
1942,2062,2295,2069,1295
2220,2080,2059,2048,1297
2061,2034,1728,1996,1299
1899,2044,2067,2080,1300
2159,2078,2273,2088,1302
2135,2073,2062,2096,1304
1903,2064,2082,2029,1306
2089,2041,1735,1996,1308
2192,2040,2024,2094,1310
1925,2068,2207,2097,1312
2016,2058,2208,2037,1314
2222,2066,2130,2045,1316
2002,2026,1586,1920,1318
1942,2057,1922,2052,1320
2188,2063,2280,2124,1322
2080,2085,2340,2122,1323
1880,2072,2081,2064,1325
2149,2037,1792,1998,1327
2157,2058,1985,2062,1329
1899,2058,2249,2075,1330
2064,2056,2070,2031,1332
2213,2064,2065,2032,1334
1927,2058,1799,2029,1335
1981,2024,1750,1996,1337
2211,2060,2281,2097,1338
2002,2069,2188,2058,1340
1931,2072,2196,2064,1341
2193,2062,1889,2063,1343
2100,2055,1994,2023,1344
1892,2061,2122,2087,1346
2116,2048,1755,1946,1347
2182,2035,1804,2050,1348
1917,2094,2411,2097,1349
2048,2087,2404,2107,1350
2239,2063,1996,1962,1352
1954,2055,1845,2042,1353
1964,2064,2143,2173,1354
2212,2077,2263,2161,1355
2039,2048,1964,2047,1357
1890,2012,1750,1964,1358
2164,2058,2218,2100,1360
2110,2071,2178,2082,1361
1883,2059,2054,2060,1363
2091,2028,1816,1983,1364
2181,2056,1919,2037,1366
1910,2061,2191,2062,1367
2016,2060,2094,2044,1369
2214,2028,1985,2032,1370
1996,2052,1792,1984,1372
1951,2034,1808,1930,1373
2184,2072,2170,2100,1375
2068,2097,2432,2159,1376
1897,2065,2107,2094,1377
2143,2051,1914,1984,1379
2146,2060,2061,2092,1380
1879,2044,2120,2107,1381
2075,2084,2262,2113,1382
2204,2069,2026,2011,1383
1936,2059,1863,2022,1385
1990,2064,2065,2070,1386
2222,2069,2055,2047,1387
1984,2049,1981,2002,1388
1947,2067,2006,2071,1389
2200,2085,2028,2059,1391
2093,2072,2001,2059,1391
1894,2055,2061,2029,1392
2125,2058,1991,2033,1393
2159,2053,2072,2050,1394
1917,2067,1988,2039,1394
2048,2046,2003,2058,1394
2206,2070,2145,2069,1395
1941,2036,2078,2029,1395
1968,2056,2085,2041,1395
2223,2072,1988,2039,1395
2031,2057,1966,2076,1395
1906,2059,2125,2038,1394
2190,2065,2105,2063,1394
2118,2080,2075,2068,1394
1901,2059,2060,2049,1394
2122,2051,2034,2064,1393
2186,2060,2088,2063,1393
1906,2054,2050,2053,1392
2031,2048,2046,2038,1392
2215,2046,2004,2025,1391
1963,2053,2039,2053,1390
1956,2048,2045,2067,1389
2210,2058,2048,2064,1387
2046,2066,2062,2049,1386
1900,2060,1995,2032,1384
2168,2048,2001,2052,1382
2132,2045,2083,2033,1380
1876,2059,2046,2055,1377
2096,2051,1949,2027,1374
2202,2057,2005,2088,1371
1919,2066,2142,2039,1368
2004,2046,2132,2065,1364
2219,2062,2121,2051,1361
1992,2051,2020,2039,1357
1928,2037,2007,2056,1353
2200,2065,2034,2050,1349
2064,2062,2038,2052,1345
1887,2042,2013,2021,1341
2142,2069,2059,2039,1336
2142,2065,2050,2037,1332
1893,2071,2024,2064,1328
2070,2062,1999,2046,1323
2201,2062,2017,2048,1318
1933,2063,2017,2023,1313
1979,2058,2080,2046,1308
2218,2067,2040,2052,1303
2011,2069,2117,2065,1298
1913,2057,2046,2036,1292
2191,2057,2064,2047,1287
2093,2052,2034,2047,1281
1894,2055,1999,2047,1275
2129,2058,1994,2046,1269
2167,2060,2079,2045,1263
1908,2052,2106,2052,1257
2042,2051,2025,2045,1251
2223,2045,1965,2050,1245
1965,2056,1947,2030,1238
1965,2055,2111,2031,1232
2219,2069,2191,2101,1225
2047,2066,2116,2074,1219
1911,2052,2054,2037,1212
2185,2059,2023,2062,1206
2122,2054,2013,2048,1200
1892,2049,2054,2068,1194
2110,2047,2015,2053,1187
2188,2068,2048,2064,1181
1911,2056,2049,2049,1175
2034,2060,2032,2060,1169
2225,2053,2025,2042,1163
1959,2048,1960,2042,1157
1943,2043,1966,2041,1150
2208,2048,2037,2052,1144
2086,2044,2123,2064,1137
1911,2037,2140,2056,1131
2168,2044,2058,2050,1124
2122,2055,2022,2052,1117
1856,2042,2036,2038,1111
2079,2045,2061,2036,1104
2198,2061,2072,2071,1098
1912,2055,2049,2056,1092
1998,2058,2026,2044,1086
2233,2064,2026,2050,1080
2004,2071,2040,2051,1074
1932,2063,2031,2041,1068
2224,2061,2021,2057,1063
2093,2068,2007,2042,1058
1887,2052,1994,2059,1052
2139,2063,2072,2064,1047
2164,2059,2019,2037,1041
1902,2061,1984,2015,1036
2070,2054,2008,2030,1030
2204,2057,2052,2092,1024
1931,2053,2198,2083,1019
1964,2050,2134,2077,1013
2212,2046,2066,2032,1007
2020,2052,2031,2023,1002
1909,2045,2020,2043,0997
2189,2051,2025,2044,0992
2098,2053,2032,2043,0987
1878,2052,1983,2032,0982
2112,2045,1981,2051,0978
2160,2055,2044,2068,0973
1923,2049,2075,2043,0969
2055,2055,2026,2030,0964
2224,2052,1978,2048,0960
1981,2050,2017,2053,0956
1962,2057,2122,2057,0952
2216,2059,2016,2031,0947
2046,2064,2047,2063,0943
1916,2059,2000,2050,0939
2164,2059,2110,2081,0934
2120,2058,2093,2042,0930
1897,2063,2040,2040,0925
2108,2059,2050,2036,0921
2189,2066,2086,2065,0916
1917,2063,2055,2073,0912
2023,2066,2070,2077,0907
2210,2067,2071,2069,0903
1986,2062,2060,2054,0899
1956,2048,2022,2016,0894
2198,2057,2000,2041,0890
2057,2057,2050,2080,0886
1914,2055,2037,2049,0881
2148,2056,2015,2036,0877
2149,2062,1984,2031,0873
1906,2055,1948,2049,0868
2060,2052,2041,2049,0864
2198,2061,2150,2073,0859
1944,2062,2101,2035,0855
2012,2049,2034,2040,0850
2213,2056,1991,2047,0845
2003,2067,2141,2082,0839
1939,2056,2120,2057,0834
2191,2060,2044,2051,0829
2096,2064,1990,2018,0824
1900,2063,2054,2074,0818
2135,2052,2093,2060,0813
2158,2051,2049,2066,0807
1912,2051,2028,2042,0802
2054,2044,1954,2011,0797
2211,2056,1976,2057,0791
1961,2055,2035,2066,0786
1969,2051,2105,2095,0780
2208,2064,2151,2061,0774
2032,2066,2047,2032,0769
1926,2060,1963,2015,0763
2172,2062,1980,2028,0757
2098,2079,2086,2050,0751
1904,2061,2157,2069,0745
2110,2064,2126,2048,0739
2151,2063,1969,2034,0733
1925,2062,1980,2030,0727
2064,2070,2067,2087,0721
2242,2059,2108,2082,0716
2006,2061,2094,2068,0710
1957,2053,2036,2042,0704
2191,2078,1988,2030,0699
2044,2056,1995,2055,0693
1919,2057,1989,2012,0688
2141,2058,2093,2066,0682
2125,2054,2048,2040,0677
1915,2045,1945,2019,0671
2080,2034,1941,2039,0665
2174,2043,2027,2031,0660
1918,2052,2205,2099,0654
2003,2058,2205,2079,0648
2201,2059,2118,2092,0643
1994,2061,1996,2040,0637
1942,2055,1938,2047,0631
2192,2064,2001,2041,0626
2062,2052,2055,2039,0620
1913,2053,2151,2050,0615
2133,2061,2112,2039,0610
2157,2068,2042,2042,0605
1913,2063,2004,2041,0600
2060,2070,1994,2053,0596
2194,2062,1977,2066,0591
1970,2068,2006,2063,0586
2018,2071,1960,2044,0582
2219,2064,1890,2000,0577
2023,2066,1922,2048,0572
1929,2056,2196,2091,0568
2173,2070,2349,2133,0563
2095,2064,2249,2070,0558
1903,2054,2085,2032,0553
2107,2049,1976,2026,0549
2147,2052,1999,2026,0544
1914,2047,2003,2025,0540
2034,2054,1970,2027,0536
2188,2055,2018,2042,0532
1966,2057,2028,2026,0528
1967,2052,1981,2018,0524
2172,2046,1916,2055,0521
2032,2049,2043,2067,0517
1923,2040,2067,2061,0514
2153,2053,2079,2046,0510
2114,2063,2018,2036,0507
1917,2062,1997,2053,0503
2098,2060,2050,2065,0499
2167,2060,2132,2036,0496
1946,2058,2109,2048,0492
2025,2061,2080,2058,0488
2200,2069,2041,2061,0484
2005,2075,2020,2061,0481
1980,2078,2029,2058,0477
2194,2080,1879,2026,0473
2066,2068,1886,2056,0469
1922,2061,2008,2038,0465
2130,2059,2275,2093,0461
2126,2061,2305,2073,0457
1926,2063,2142,2032,0453
2072,2057,1992,2036,0450
2169,2062,1945,2049,0446
1953,2050,1999,2057,0442
2001,2050,2029,2034,0439
2197,2057,2066,2052,0435
2019,2057,2052,2031,0432
1950,2053,1969,2034,0429
2174,2060,1957,2072,0426
2100,2078,2058,2082,0422
1919,2065,2095,2074,0419
2138,2069,2074,2061,0416
2159,2073,2041,2048,0413
1944,2072,1996,2073,0410
2078,2089,2055,2079,0407
2217,2093,2148,2090,0403
1990,2087,2143,2082,0400
1988,2080,2092,2043,0396
2191,2061,2024,2035,0393
2030,2061,1933,2042,0390
1914,2037,1991,2027,0386
2140,2043,2064,2046,0383
2065,2029,2102,2021,0379
1885,2025,2043,2008,0376
2061,2014,1940,1988,0372
2126,2027,1957,2013,0369
1898,2026,2023,2031,0365
2018,2039,2039,2050,0361
2200,2058,2065,2061,0358
1969,2049,2033,2040,0354
1959,2049,2003,2047,0351
2184,2056,1989,2038,0347
2050,2054,1997,2060,0343
1933,2054,2092,2056,0339
2149,2054,2116,2057,0335
2097,2041,2087,2034,0332
1937,2070,2075,2056,0328
2084,2059,2009,2047,0324
2175,2055,2028,2053,0320
1948,2052,2032,2051,0316
2031,2078,2040,2061,0312
2213,2078,2039,2075,0308
2006,2083,2039,2087,0304
1969,2071,2035,2064,0300
2208,2066,2092,2060,0296
2086,2073,2088,2039,0292
1941,2072,2077,2056,0288
2141,2066,2047,2057,0284
2144,2069,2025,2060,0280
1910,2057,2030,2026,0276
2083,2067,2015,2039,0272
2178,2072,1959,2053,0268
1960,2058,1979,2059,0264
1994,2044,2058,2065,0260
2175,2043,2130,2035,0256
2032,2078,2137,2053,0252
1943,2059,2050,2035,0248
2183,2064,2016,2065,0244
2097,2070,2071,2074,0240
1934,2082,2103,2057,0236
2114,2068,2065,2049,0232
2156,2069,2050,2075,0229
1925,2049,2024,2048,0225
2041,2062,2051,2063,0222
2191,2059,2040,2054,0219
1969,2056,2037,2056,0215
1972,2044,2023,2049,0212
2164,2033,2014,2035,0209
2020,2057,2034,2045,0207
1932,2036,2025,2034,0204
2146,2016,2016,2016,0201
2113,2054,2036,2040,0198
1930,2060,2035,2049,0196
2074,2050,2036,2056,0193
2130,2043,2031,2031,0191
1932,2051,2038,2039,0188
2029,2067,2056,2049,0186
2190,2074,2054,2063,0183
2004,2071,2049,2053,0181
1967,2065,2057,2056,0179
2172,2062,2057,2056,0177
2052,2061,2035,2051,0175
1937,2062,2041,2056,0173
2135,2060,2037,2062,0171
2127,2071,2054,2059,0169
1930,2056,2045,2030,0168
2057,2048,2037,2038,0166
2170,2062,2045,2076,0165
1965,2076,2051,2069,0163
2009,2056,2047,2069,0162
2196,2061,2043,2034,0160
2019,2068,2058,2041,0159
1944,2052,2036,2047,0158
2180,2061,2059,2071,0157
2091,2066,2040,2067,0156
1924,2053,2031,2038,0155
2124,2062,2062,2067,0153
2121,2045,2029,2027,0152
1936,2055,2047,2063,0151
2042,2044,2043,2047,0150
2177,2052,2031,2035,0149
1967,2052,2047,2044,0148
1979,2051,2046,2041,0147
2169,2041,2027,2024,0146
2012,2034,2038,2056,0146
1951,2064,2041,2050,0145
2174,2057,2042,2049,0144
2100,2074,2046,2068,0143
1924,2057,2009,2017,0143
2104,2061,2062,2094,0142
2161,2074,2058,2066,0141
1937,2065,2041,2069,0141
2036,2053,2032,2028,0140
2187,2065,2049,2062,0140
1963,2052,2048,2049,0140
1970,2048,2032,2029,0139
2194,2065,2054,2050,0138
2045,2061,2050,2053,0138
1920,2053,2037,2035,0137
2152,2065,2019,2036,0136
2106,2061,2032,2052,0135
1929,2060,2037,2040,0133
2090,2048,2008,2011,0132
2183,2073,2070,2088,0130
1932,2048,2045,2038,0128
2019,2052,2037,2047,0127
2202,2073,2062,2055,0125
1994,2059,2031,2075,0123
1937,2049,2018,2030,0120
2177,2057,2029,2038,0118
2070,2074,2058,2054,0116
1914,2053,2032,2009,0113
2159,2075,2068,2104,0111
2121,2053,2013,2029,0109
1908,2047,2034,2049,0106
2069,2048,2029,2034,0104
2176,2050,2038,2050,0102
1968,2056,2057,2082,0099
2002,2047,2035,2052,0097
2194,2055,2042,2051,0095
1985,2038,2035,2032,0093
1954,2060,2056,2053,0090
2171,2053,2057,2054,0088
2094,2066,2068,2052,0087
1937,2071,2042,2039,0085
2121,2066,2053,2053,0083
2134,2065,2019,2033,0081
1955,2084,2082,2071,0079
2061,2059,2039,2052,0078
2184,2072,2050,2067,0076
1975,2060,2035,2048,0075
1987,2057,2072,2099,0073
2177,2069,2068,2076,0072
2035,2056,2042,2041,0070
1928,2053,2040,2058,0069
2169,2068,2044,2079,0067
2084,2040,2036,2051,0066
1918,2061,2047,2052,0064
2104,2055,2048,2043,0062
2184,2087,2072,2074,0061
1939,2060,2043,2038,0059
2036,2079,2035,2016,0058
2208,2084,2097,2084,0056
1971,2052,2041,2048,0054
1964,2048,2045,2045,0053
2179,2050,2030,2043,0051
2044,2056,2070,2079,0050
1926,2054,2036,2063,0049
2140,2056,2041,2056,0047
2128,2068,2043,2032,0046
1908,2049,2031,2039,0045
2089,2052,2027,2049,0044
2164,2050,2033,2048,0043
1958,2062,2036,2041,0042
2000,2057,2068,2057,0041
2218,2089,2058,2047,0040
2012,2080,2035,2111,0039
1973,2074,2037,2067,0038
2175,2063,2014,2027,0036
2081,2064,2047,2047,0035
1907,2053,2050,2032,0034
2133,2060,2042,2079,0033
2130,2049,2030,2054,0032
1913,2049,2047,2041,0030
2073,2061,2049,2050,0029
2180,2071,2048,2052,0027
1968,2074,2044,2043,0026
1996,2056,2066,2071,0025
2216,2081,2032,2045,0023
2040,2064,2044,2065,0022
1954,2066,2081,2074,0020
2163,2050,2017,2014,0019
2089,2058,2075,2088,0018
1916,2063,2070,2070,0017
2156,2102,2030,2006,0016
2158,2073,2053,2071,0015
1949,2098,2052,2061,0014
2038,2048,2010,2038,0013
2188,2047,2031,2030,0012
1974,2063,2093,2125,0011
1967,2062,2046,2070,0010
2203,2052,2038,2085,0009
2032,2050,2042,2045,0008
1899,2032,2031,2031,0007
2150,2049,2048,2048,0006
2126,2065,2063,2050,0004
1901,2045,2051,2036,0003
2097,2062,2045,2038,0002
2173,2055,2049,2044,0002
1940,2060,2052,2044,0002
2027,2063,2053,2041,0002
2210,2065,2050,2057,0002
1999,2063,2042,2058,0002
1956,2056,2040,2053,0002
2197,2060,2051,2049,0002
2075,2072,2061,2052,0002
1898,2037,2021,2046,0002
2173,2083,2056,2066,0002
2117,2047,2023,2035,0002
1928,2074,2077,2060,0002
2072,2050,2046,2042,0002
2182,2064,2033,2049,0002
1942,2055,2038,2050,0002
2003,2076,2034,2044,0002
2196,2058,2027,2047,0002
2008,2062,2020,2056,0002
1945,2059,1973,2042,0002
2181,2063,1983,2047,0002
2083,2062,2014,2062,0002
1913,2052,2039,2065,0002
2121,2050,2090,2047,0003
2148,2060,2088,2049,0003
1930,2062,2040,2046,0004
2060,2061,1929,2040,0004
2190,2066,1943,2066,0005
1966,2061,1971,2037,0006
1990,2053,2192,2061,0008
2190,2058,2298,2060,0009
2033,2056,2263,2057,0011
1920,2050,2171,2053,0013
2156,2058,2101,2071,0016
2088,2053,2059,2047,0019
1912,2053,2027,2048,0022
2114,2059,1984,2038,0025
2152,2063,1980,2046,0029
1938,2059,1979,2039,0033
2039,2056,1975,2039,0038
2198,2065,1973,2047,0042
1998,2066,1970,2047,0047
1979,2073,1898,2030,0052
2197,2063,1878,2029,0057
2037,2066,1874,2039,0062
1935,2063,2109,2058,0067
2146,2052,2273,2102,0073
2127,2062,2272,2063,0078
1911,2052,2189,2061,0083
2071,2050,2119,2072,0089
