128 23 4 7 0
108 11 10 0 0
-164 8 -9 0 0
23 0 -2 -9 0
158 -5 -73 -50 0
-119 15 -11 13 0
-51 18 -6 6 0
160 -4 -24 -14 0
-39 -1 1 4 0
-113 35 35 33 0
179 53 13 23 0
53 26 3 12 0
-137 17 3 16 0
79 14 -3 -3 0
106 7 -9 1 0
-143 -4 -30 -37 0
3 5 23 35 0
144 5 -21 0 0
-62 25 1 14 0
-58 22 -1 17 0
137 8 -9 -11 0
-26 7 -11 7 0
-109 12 -8 5 0
112 9 -1 -9 0
49 13 3 13 0
-138 -2 -20 -10 0
50 3 1 16 0
121 15 -3 9 0
-100 22 -3 14 0
-30 -6 -30 -10 0
144 14 -14 -7 0
-83 1 -4 0 0
-76 9 1 6 0
150 17 10 6 0
-5 12 6 16 0
-112 10 6 5 0
100 6 2 0 0
53 -4 -8 -5 0
-85 55 33 29 0
54 16 3 5 0
133 18 8 9 0
-87 23 4 11 0
-28 12 10 19 0
149 17 4 9 0
-38 15 3 9 0
-93 -10 -17 -15 0
134 3 13 26 0
17 18 0 6 0
-133 0 -13 -6 0
90 46 -20 -10 0
90 16 16 6 0
-134 -4 -12 -26 0
36 6 -15 -16 0
140 37 27 33 0
-73 37 22 45 0
-35 0 -28 -16 0
135 3 -3 10 0
-35 -2 -7 4 0
-99 2 -7 4 0
145 40 19 27 0
57 29 21 22 0
-126 21 -3 -1 0
66 8 -8 6 0
80 -1 -4 4 0
-108 19 -3 10 0
11 11 -12 -3 0
125 6 1 -3 0
-78 4 -12 -11 0
-72 -5 -23 -33 0
138 20 11 20 0
-7 12 11 23 0
-104 10 3 24 0
104 0 -11 -1 0
40 20 -12 16 0
-120 2 3 -1 0
36 7 -11 -7 1
116 23 4 3 1
-111 10 -21 -34 1
-33 0 -6 -1 1
124 -1 -55 -46 1
-73 -18 16 38 1
-106 -18 -54 -26 1
75 -43 -52 -39 1
-49 -49 -108 -85 1
-192 -68 -71 -58 1
10 -47 -88 -95 1
-32 -86 -101 -98 1
-202 -69 -80 -83 1
-48 -66 -78 -64 1
60 -49 -63 -50 1
-104 16 -8 -1 1
-17 26 32 -5 1
165 41 35 40 1
24 72 47 59 1
-22 72 71 74 1
197 89 85 97 1
121 95 98 115 1
11 110 103 104 1
191 141 118 139 1
190 151 111 114 1
-17 103 76 64 1
80 72 73 79 1
161 35 40 48 1
-49 59 25 20 1
-52 6 -17 -6 1
130 24 -8 -7 1
-40 -10 -29 -21 1
-113 -12 -13 -15 1
120 11 -6 0 1
48 -25 -12 -3 1
-104 38 2 16 1
49 -5 -14 7 1
105 47 6 8 1
-96 20 -1 1 1
7 21 -1 6 1
131 38 2 31 1
-83 0 -4 13 1
-50 15 -10 18 1
115 5 -27 -17 1
4 15 4 -1 1
-110 -14 -16 -14 1
65 -1 -16 -7 1
19 -28 -36 -34 1
-106 10 1 2 1
36 0 -18 -13 1
105 16 -33 -7 1
-88 13 12 7 1
-11 18 4 12 1
110 -14 -16 -20 1
-19 36 26 39 1
-84 -5 -11 6 1
133 28 9 19 1
-4 -3 -15 -18 1
-117 -1 7 13 1
36 -33 -60 -46 1
38 -33 -45 -24 1
-143 -57 -40 -43 1
-1 14 -27 -25 1
126 30 12 26 1
-63 52 3 20 1
-43 1 -9 -9 2
114 -19 -7 8 2
-43 -3 -5 6 2
-84 16 -4 16 2
132 34 23 22 2
74 74 39 41 2
-43 88 77 81 2
152 98 96 101 2
199 108 109 115 2
-55 56 63 58 2
48 41 33 37 2
109 -10 -5 -7 2
-125 -29 -49 -54 2
-98 -25 -39 -35 2
82 -26 -30 -26 2
-19 19 -9 -11 2
-79 17 -13 -15 2
126 13 1 23 2
39 11 -12 2 2
-148 -19 -46 -33 2
-5 -29 -54 -62 2
20 -81 -70 -75 2
-170 -48 -83 -82 2
-41 -33 -40 -42 2
123 8 -3 25 2
-45 14 -6 14 2
-44 8 19 24 2
158 46 4 -7 2
33 36 33 39 2
-68 54 36 60 2
86 8 -11 -2 2
22 -34 -65 -58 2
-182 -60 -71 -65 1
-49 -69 -103 -127 1
53 -41 -33 -47 1
-160 -61 -57 -27 1
-91 -50 -101 -56 1
72 -35 -69 -47 1
-86 -33 -74 -95 1
-115 -27 0 -10 0
103 -12 -36 -31 0
15 6 7 -35 0
-81 36 49 95 0
108 30 24 45 0
106 33 -1 58 0
-91 34 27 13 0
30 31 7 -7 0
150 41 7 61 0
-42 38 21 45 0
-30 7 23 11 0
214 104 84 94 0
60 111 79 80 0
-9 81 92 83 0
222 120 116 93 0
154 144 186 218 0
-33 111 70 81 0
146 90 84 87 0
156 74 53 50 0
-104 26 21 12 0
-44 -28 -49 -41 0
37 -86 -95 -96 0
-234 -142 -143 -147 0
-205 -130 -162 -171 0
-22 -154 -199 -225 0
-144 -118 -109 -69 0
-258 -148 -154 -136 0
-41 -121 -153 -127 0
-70 -103 -107 -81 0
-173 -41 -76 -77 0
-23 -66 -92 -67 0
87 -24 -46 -52 0
-155 -51 -8 -15 0
-72 -49 -63 -51 0
136 23 -11 34 0
-79 -7 -38 -29 0
-50 42 38 59 0
208 74 67 79 0
67 77 44 61 0
-80 55 40 48 0
144 37 23 39 0
104 29 31 39 0
-106 28 24 23 0
63 16 23 18 0
164 53 19 25 0
-77 52 48 52 0
10 51 18 32 0
180 43 20 16 0
-14 38 14 14 0
-58 63 55 73 0
173 40 13 7 0
55 38 6 29 0
-89 60 112 110 0
119 39 -12 -7 0
136 47 52 77 0
-117 20 -2 1 0
18 18 17 20 0
141 14 -3 -2 0
-65 27 5 17 0
-18 41 4 -37 0
195 62 59 50 0
9 47 -19 -7 0
-62 45 68 95 0
164 48 0 55 0
68 44 63 40 0
-112 20 -61 -61 0
112 42 -45 -9 0
114 35 46 84 0
-108 15 -50 -32 0
13 22 52 49 0
145 20 -11 -23 0
-76 8 12 29 0
-56 16 -2 30 0
150 14 -1 13 0
-15 19 20 29 0
-115 4 3 -1 0
84 -17 -14 -30 0
59 12 14 -9 0
-154 -19 -4 -2 0
49 10 -8 -12 0
99 5 1 0 0
-143 12 -17 -29 0
-45 -32 -59 -82 0
144 -1 2 40 0
-78 8 -33 -13 0
-91 9 -4 13 0
150 21 -6 22 0
0 11 -1 0 0
-142 -6 -11 -6 0
94 -14 -22 -23 0
58 -25 -25 -18 0
-174 -10 -46 -38 0
22 -7 -24 -17 0
135 22 -9 -3 0
-130 -10 -12 -17 0
-38 2 2 5 0
183 24 5 -3 0
-58 17 19 26 0
-97 12 -25 -5 0
133 7 -8 2 0
19 9 6 16 0
-140 13 -26 -9 0
103 15 -13 -8 0
80 0 -46 -26 0
-148 -1 -18 6 0
15 3 3 14 0
145 15 -7 34 0
-98 11 -6 4 0
-51 12 -9 14 0
154 17 4 9 0
-26 24 21 22 0
-105 8 0 15 0
122 7 2 -1 0
33 22 7 11 0
-133 11 8 4 0
66 10 15 14 0
103 12 -12 -18 0
-110 38 38 39 0
15 1 -29 -29 0
158 28 58 47 0
-58 31 -11 -11 0
-75 14 -30 -4 0
161 28 -2 10 0
-7 15 8 -13 0
-122 12 5 7 0
117 16 -11 18 0
64 12 -2 20 0
-136 7 7 1 0
45 5 -9 -16 0
123 9 -11 12 0
-129 0 -36 -50 0
17 29 32 34 0
174 41 10 11 0
-55 43 14 34 0
-117 -24 -56 -44 0
81 -49 -89 -93 0
-86 -68 -78 -64 0
-231 -74 -92 -91 0
46 -50 -48 -53 0
24 -46 -28 -3 0
-199 -43 -44 -24 0
24 -17 -29 -18 0
121 -12 -48 -34 0
-137 -5 -2 16 0
-31 16 -23 -20 0
181 39 56 56 0
-37 36 -4 8 0
-94 29 35 20 0
165 24 -4 22 0
48 22 -19 -3 0
-118 43 24 46 0
107 19 23 32 0
106 4 12 5 0
-129 12 24 14 0
5 -3 -18 -3 0
131 -9 -31 -46 0
-106 5 4 32 0
-59 19 27 11 0
175 16 26 32 0
-16 16 -11 -4 0
-123 7 0 4 0
148 24 40 43 0
57 20 -13 -4 0
-145 12 -4 -18 0
89 22 0 3 0
132 19 28 22 0
-118 17 5 16 0
6 22 12 29 0
163 23 5 12 0
-84 16 34 42 0
-66 20 17 -17 0
166 15 27 56 0
10 29 -1 15 0
-120 15 -19 2 0
123 32 10 28 0
60 -4 -2 -10 0
-132 16 6 14 0
41 24 -11 -18 0
129 20 2 -27 0
-113 16 2 18 0
-25 9 2 22 0
175 26 7 28 0
-59 16 -21 -35 0
-114 -13 -63 -69 0
150 16 -16 8 0
20 15 -4 9 0
-136 4 -19 1 0
111 11 10 18 0
96 22 -9 -13 0
-126 37 41 34 0
39 5 -32 -44 0
151 20 -26 -25 0
-110 10 -39 -8 0
-61 0 -21 -4 0
136 -8 -45 -34 0
-32 18 13 5 0
-100 16 -1 10 0
147 2 -7 0 0
40 4 5 -3 0
-151 -2 -11 -15 0
86 4 -8 -11 0
108 5 -20 -18 0
-137 13 26 22 0
23 27 64 82 0
176 19 -10 20 0
-103 8 2 22 0
-72 4 -9 -5 0
165 15 -6 3 0
-31 9 -9 1 0
-130 6 -3 1 0
122 5 -2 -2 0
55 8 4 15 0
-146 12 2 4 0
68 4 -1 3 0
110 -3 -7 -3 0
-140 11 29 26 0
-9 3 20 3 0
176 18 2 15 0
-60 23 -12 7 0
-87 15 -12 13 0
162 43 2 17 0
-1 16 1 -3 0
-136 8 -15 -29 0
117 15 12 23 0
72 8 -17 -4 0
-144 10 -12 -8 0
42 -1 -2 -4 0
131 8 2 -7 0
-117 14 -3 13 0
-20 6 0 14 0
164 24 2 38 0
-54 18 -6 -4 0
-121 -5 -25 -32 0
149 16 48 49 0
21 15 1 6 0
-134 15 -11 7 0
86 12 -5 -8 0
127 32 -8 9 0
-161 -14 -38 -65 0
47 37 19 13 0
160 20 6 31 0
-112 5 -8 2 0
-61 8 4 4 0
155 3 -26 -2 0
-35 19 6 43 0
-122 9 -14 -13 0
146 20 18 9 0
48 4 -23 -42 0
-156 7 -11 -13 0
77 1 -23 -6 0
121 28 42 72 0
-152 5 -12 14 0
6 6 4 31 0
166 26 -16 -11 0
-91 13 -2 -23 0
-87 4 21 30 0
179 18 24 14 0
-15 26 33 31 0
-131 12 -19 -33 0
172 45 0 9 0
69 22 9 44 0
-147 15 -35 -12 0
65 -5 -12 -14 0
126 7 28 32 0
-129 11 -13 12 0
-19 2 -32 0 0
160 -2 -29 -25 0
-98 4 -17 -14 0
-109 6 -20 -5 0
149 2 -11 -7 0
-8 -1 -7 -8 0
-156 -6 -7 -7 0
119 12 0 9 0
76 5 2 2 0
-146 18 13 29 0
42 5 1 18 0
144 12 -1 6 0
-118 9 -7 2 0
-33 14 -2 1 0
135 -21 -29 -20 0
-33 23 7 2 0
-117 0 -22 -31 0
170 30 1 14 0
49 29 8 28 0
-141 12 12 29 0
112 27 1 7 0
105 16 -3 6 0
-161 0 -18 -12 0
18 10 -10 -7 0
160 16 6 15 0
-104 7 -9 0 0
-56 11 -1 4 0
140 -4 -22 -13 0
-20 34 15 12 0
-101 20 13 2 0
148 18 39 23 0
62 32 12 19 0
-159 -7 -32 -42 0
80 10 33 59 0
118 16 -11 12 0
-141 12 10 54 0
-3 14 -13 3 0
156 10 -3 -16 0
-91 12 8 7 0
-75 10 0 7 0
162 8 2 -6 0
-20 10 2 -5 0
-131 15 17 7 0
137 14 12 37 0
66 18 -28 -17 0
-157 0 -31 -41 0
76 21 0 -9 0
125 9 -4 7 0
-123 20 -5 -18 0
-13 9 -7 15 0
163 8 -3 3 0
-82 2 -7 7 0
-72 20 -2 9 0
154 4 11 8 0
17 27 -2 -10 0
-132 16 19 16 0
119 19 -9 -7 0
95 20 4 23 0
-154 31 -9 -1 0
30 -2 -17 -24 0
159 22 35 33 0
-130 2 25 45 0
-41 3 3 12 0
155 5 -13 -7 0
-58 7 10 5 0
-110 10 11 15 0
159 15 -10 -9 0
33 11 -10 2 0
-155 -1 -18 -2 0
87 2 -2 0 0
102 12 -4 -23 0
-154 -4 -37 -75 0
18 16 16 9 0
143 11 -11 12 0
-96 14 1 26 0
-65 3 -43 -24 0
166 7 -3 -3 0
-34 12 -19 9 0
-123 16 -14 -12 0
122 -2 -26 -17 0
72 32 10 19 0
-162 5 -11 3 0
72 8 -14 -10 0
118 7 4 24 0
-125 15 10 8 0
-4 13 -8 -10 0
162 16 10 17 0
-96 8 -5 -5 0
-92 6 -22 -15 0
162 15 -10 -12 0
-9 18 13 26 0
-140 6 -19 3 0
120 14 -3 1 0
68 10 7 14 0
-144 14 -5 -2 0
48 10 -13 -5 0
130 16 -4 -4 0
-128 12 3 0 0
-22 18 10 15 0
178 27 17 26 0
-88 -14 -27 -37 0
-89 15 11 44 0
161 16 -2 25 0
13 18 -14 21 0
-147 -5 -3 1 0
113 11 -6 -8 0
93 24 -5 -1 0
-119 31 2 9 0
54 21 18 9 0
170 39 28 26 0
-92 36 17 12 0
-39 17 3 2 0
181 14 7 6 0
-36 26 11 20 0
-111 16 -2 0 0
157 15 -1 13 0
9 -22 -24 -10 0
-171 -11 -31 -17 0
77 -2 -6 1 0
105 9 -21 -29 0
-164 -9 -8 -27 0
-11 -9 -25 -8 0
176 16 -18 3 0
-109 13 14 11 0
-69 6 -10 -9 0
178 20 -5 8 0
-44 3 -17 3 0
-135 7 -5 -2 0
135 9 -3 -10 0
56 18 8 2 0
-161 6 -3 -4 0
67 2 0 -27 0
124 3 -7 10 0
-151 4 7 3 0
-19 2 -10 -11 0
163 3 5 -4 0
-81 8 -9 -4 0
-92 0 8 26 0
160 8 -9 12 0
-6 10 -16 4 0
-148 6 9 26 0
124 16 -5 -3 0
74 14 0 15 0
-155 13 2 -9 0
50 12 -15 11 0
141 23 -13 3 0
-131 15 -2 19 0
-24 13 8 10 0
171 14 4 8 0
-52 23 7 2 0
-95 15 12 14 0
167 20 5 15 0
9 7 -7 -6 0
-165 -12 -7 -12 0
102 -3 -17 -19 0
83 8 6 12 0
-159 1 -6 0 0
34 9 -11 -10 0
149 16 11 11 0
-127 11 6 15 0
-46 10 -6 -3 0
169 16 0 15 0
-58 5 -1 -3 0
-126 -10 16 17 0
157 14 -15 -12 0
26 20 -5 3 0
-145 18 -7 33 0
93 8 -10 5 0
115 20 13 19 0
-137 7 9 -14 0
-7 -9 -20 -21 0
181 32 42 31 0
-98 18 -1 -5 0
-59 18 3 5 0
171 15 -3 3 0
-17 24 22 28 0
-129 10 18 16 0
134 1 0 -7 0
46 7 -25 -2 0
-160 5 -10 -4 0
66 22 -2 -9 0
131 27 11 10 0
-138 16 26 34 0
-11 9 -49 -21 0
160 13 -6 -3 0
-83 16 -15 -8 0
-90 3 3 20 0
162 11 8 3 0
18 25 4 6 0
-136 1 -6 2 0
119 18 2 16 0
82 19 2 10 0
-155 3 -2 0 0
50 12 -2 -15 0
143 24 25 38 0
-120 10 -16 -12 0
-10 30 27 39 0
154 4 -51 -46 0
-64 12 -5 24 0
-116 -7 -57 -42 0
154 12 -3 4 0
18 17 22 15 0
-148 1 3 9 0
92 -8 -11 4 0
85 -1 -17 0 0
-145 12 -3 -7 0
18 0 -25 -20 0
156 13 9 26 0
-108 13 -12 -11 0
-59 6 -3 9 0
172 13 0 20 0
-35 12 10 -3 0
-126 3 9 16 0
162 29 -4 6 0
34 10 -41 -27 0
-146 14 -19 -20 0
94 14 -17 -31 0
120 20 18 47 0
-140 9 -32 -46 0
5 2 -3 34 0
173 22 0 9 0
-106 16 -16 9 0
-70 7 4 10 0
166 9 -10 -15 0
-24 4 6 18 0
-142 -3 -25 -23 0
141 14 -1 2 0
59 9 -7 -8 0
-151 12 -9 3 0
70 18 -2 -1 0
137 19 10 20 0
-147 20 -11 -20 0
-19 7 -11 -7 0
154 14 7 -25 0
-62 24 18 37 0
-76 11 -11 -4 0
166 18 -4 19 0
-8 8 -9 -1 0
-137 15 5 9 0
123 31 2 26 0
84 8 -18 4 0
-155 7 -1 -4 0
53 12 0 3 0
150 18 3 14 0
-122 19 4 9 0
-26 10 1 0 0
169 13 -4 -2 0
-59 19 5 8 0
-137 -13 -20 -12 0
160 4 -17 -10 0
20 15 21 30 0
-151 11 -12 -7 0
110 17 17 9 0
104 25 18 41 0
-152 9 -25 -20 0
31 15 -6 15 0
157 18 3 15 0
-108 12 0 31 0
-45 19 18 36 0
179 32 -3 11 0
-34 22 21 30 0
-129 10 -7 -7 0
146 8 -6 10 0
38 4 -17 -12 0
-175 -6 -15 -7 0
93 18 1 18 0
116 18 17 23 0
-134 19 -14 6 0
-4 8 -7 -6 0
145 19 -6 2 0
-104 3 -11 -21 0
-65 25 21 10 0
160 9 0 -7 0
-14 20 58 66 0
-134 5 -16 -1 0
132 16 -17 3 0
69 17 -6 -15 0
-159 24 -9 -17 0
67 11 13 24 0
137 23 -3 32 0
-128 1 0 47 0
-23 8 -13 -9 0
169 14 -9 -18 0
-82 9 -12 -4 0
-97 7 -4 0 0
152 7 -3 -1 0
12 21 7 13 0
-147 0 -9 -10 0
115 6 -7 -4 0
81 12 -4 4 0
-159 8 4 4 0
47 10 -8 -8 0
139 16 10 25 0
-122 16 -10 1 0
-48 4 15 5 0
179 26 -23 -9 0
-55 12 18 18 0
-102 17 15 44 0
144 12 -13 0 0
43 26 -14 0 0
-154 13 -3 3 0
90 4 -11 -8 0
107 18 16 -6 0
-157 13 -20 -6 0
9 -1 10 7 0
153 6 -1 -11 0
-108 24 -17 -10 0
-65 17 -5 -7 0
176 30 -4 10 0
-31 7 -6 8 0
-130 0 -14 -20 0
139 -1 -11 -12 0
46 14 12 16 0
-147 11 -9 -14 0
90 9 36 47 0
116 12 -17 -10 0
-137 7 -4 2 0
3 16 -1 -3 0
160 10 -13 -1 0
-82 14 12 7 0
-95 0 -4 -1 0
163 3 0 12 0
-1 6 12 20 0
-150 -15 -6 9 0
131 5 0 18 0
68 21 -8 -5 0
-158 21 -24 -31 0
39 3 -29 -28 0
141 28 23 51 0
-123 9 -4 13 0
-35 0 -12 0 0
161 9 10 39 0
-71 -3 -11 0 0
-98 11 23 46 0
183 38 -2 -3 0
4 7 -3 3 0
-148 8 15 21 0
135 23 13 13 0
84 12 -15 -6 0
-153 8 1 7 0
38 -6 -1 -3 0
140 0 -10 -4 0
-107 24 25 34 0
-79 -36 -29 -28 0
171 16 1 -5 0
-40 14 4 4 0
-107 24 1 1 0
147 -3 -7 0 0
24 18 22 10 0
-145 24 -20 1 0
98 32 -10 1 0
112 26 -10 10 0
-141 7 -22 -4 0
11 4 16 14 0
159 17 27 39 0
-112 -9 3 5 0
-61 0 5 15 0
173 7 20 20 0
-30 24 -6 8 0
-128 9 -17 -12 0
134 11 -10 -12 0
50 19 8 5 0
-158 8 -16 7 0
73 25 -11 7 0
123 32 -18 6 0
-144 4 -16 -17 0
-12 6 12 15 0
180 19 8 16 0
-93 4 -16 -21 0
-100 -13 -36 -35 0
173 22 11 8 0
-16 6 -5 4 0
-158 -8 -24 -10 0
131 11 3 7 0
68 19 13 19 0
-164 3 -18 -18 0
73 19 -5 11 0
128 10 9 0 0
-126 13 8 18 0
-27 4 -24 -16 0
165 6 -17 -3 0
-67 15 7 12 0
-101 8 4 -9 0
151 4 1 7 0
9 9 -29 -1 0
-149 11 7 20 0
103 7 -11 -15 0
100 22 -17 -10 0
-153 16 -13 -15 0
37 15 -2 18 0
143 15 8 19 0
-128 1 -6 -4 0
-60 1 -1 5 0
173 12 -4 -9 0
-38 28 -2 6 0
-116 8 -10 -11 0
160 19 -17 -17 0
30 6 4 0 0
-147 4 -19 -8 0
79 9 -21 -15 0
134 36 2 29 0
-157 -7 -23 -22 0
-9 -11 -4 32 0
159 17 -8 4 0
-98 14 3 18 0
-66 2 -24 -21 0
169 19 -17 -30 0
-26 17 1 11 0
-125 11 -4 9 0
139 12 -15 -18 0
52 10 -15 -27 0
-152 10 -27 -27 0
67 9 4 28 0
130 17 4 9 0
-144 -6 -22 -10 0
-14 4 33 25 0
152 4 -13 -10 0
-89 2 24 30 0
-81 14 4 32 0
167 13 5 24 0
4 25 15 17 0
-153 -8 -26 -36 0
136 13 1 22 0
67 16 -10 6 0
-151 15 -1 6 0
36 -6 -15 -17 0
136 18 -4 0 0
-123 20 7 10 0
-28 12 -17 -17 0
172 14 -9 3 0
-67 8 -11 2 0
-106 4 -21 -14 0
158 13 -3 13 0
18 8 -16 -12 0
-164 -10 1 -11 0
138 36 -9 -2 0
88 10 6 18 0
-151 12 -3 8 0
61 39 14 9 0
147 8 1 0 0
-118 17 -11 15 0
-44 6 -15 -9 0
160 -2 -3 11 0
-52 8 -17 -14 0
-113 6 1 -2 0
153 0 -2 12 0
38 8 -23 -19 0
-177 -17 -23 10 0
96 13 20 20 0
122 32 2 18 0
-154 16 -8 -19 0
12 6 -11 -20 0
158 14 -10 -2 0
-98 9 -10 1 0
-81 -3 7 18 0
162 8 -19 -14 0
-41 24 0 4 0
-128 9 -6 -11 0
152 37 -5 -4 0
71 13 4 2 0
-153 -4 13 15 0
71 19 -4 -17 0
136 22 -15 -19 0
-133 21 9 23 0
-20 14 -26 1 0
161 2 -11 -3 0
-77 14 3 26 0
-98 2 -2 -14 0
176 -10 -3 22 0
24 19 15 27 0
-156 7 -31 -18 0
116 28 6 18 0
61 0 -6 4 0
-160 9 -26 -25 0
42 21 31 37 0
141 29 -6 -6 0
-117 30 -17 -14 0
-30 2 -1 4 0
170 12 -12 -12 0
-47 14 28 56 0
-107 0 -22 -17 0
159 23 -18 8 0
15 -6 -4 5 0
-150 6 16 36 0
105 19 15 6 0
114 34 0 -3 0
-156 4 -8 -1 0
29 8 -5 -8 0
148 13 10 4 0
-108 6 -10 -3 0
-56 9 10 4 0
164 11 1 0 0
-42 9 -20 -41 0
-119 20 40 42 0
147 17 -1 15 0
32 9 -5 23 0
-134 31 -3 13 0
81 6 -9 -13 0
127 28 31 34 0
-129 13 -9 -14 0
2 10 16 30 0
170 22 14 28 0
-88 17 14 32 0
-70 17 -10 1 0
157 16 -29 -18 0
8 38 33 35 0
-140 -5 -37 -34 0
137 16 -12 24 0
57 9 4 32 0
-146 5 -13 -10 0
51 -2 -18 -12 0
129 14 -5 -3 0
-157 -7 -31 -24 0
-1 18 -1 14 0
171 22 3 6 0
-57 29 30 19 0
-86 8 -25 -17 0
162 16 20 33 0
-9 10 1 -9 0
-160 -17 -26 -39 0
107 -10 -22 -17 0
85 27 -3 15 0
-147 16 -19 -11 0
56 21 -1 42 0
145 19 8 16 0
-127 11 -6 11 0
-33 4 -4 -4 0
151 -4 -29 -24 0
-56 13 44 68 0
-120 0 0 -7 0
137 1 -14 -6 0
40 14 1 -1 0
-163 -2 -41 -57 0
97 3 -28 12 0
98 11 8 34 0
-146 6 -21 -5 0
18 0 -8 -4 0
162 15 -1 -6 0
-123 -4 -7 -20 0
-30 26 7 8 0
174 13 9 15 0
-11 29 10 12 0
-130 1 1 1 0
133 -9 -10 14 0
47 12 -10 18 0
-140 25 1 22 0
78 12 -10 -3 0
123 19 -2 13 0
-156 -3 -22 -7 0
-7 -5 -11 -31 0
192 29 36 43 0
-84 20 -2 7 0
-75 7 -1 8 0
155 -35 -25 -9 0
-27 -15 -23 -18 0
-151 23 -35 -40 0
152 46 -22 -5 0
82 33 4 6 0
-155 12 48 48 0
54 12 -7 12 0
123 15 0 1 0
-140 -7 -16 -12 0
-8 4 -3 -3 0
173 16 -1 15 0
-72 6 -7 -2 0
-106 -4 -9 -5 0
160 16 6 9 0
3 22 1 14 0
-154 -14 -7 1 0
127 18 17 31 0
94 20 0 7 0
-148 16 -23 -21 0
13 -7 -17 -16 0
149 17 67 75 0
-99 21 12 15 0
-19 28 -7 16 0
190 9 -39 -5 0
-54 15 -4 7 0
-130 9 7 5 0
151 5 -1 -1 0
26 5 -3 7 0
-150 12 -1 9 0
91 14 7 9 0
106 5 0 2 0
-164 -5 -27 -19 0
9 4 -26 -5 0
184 44 12 28 0
-115 -2 -6 1 0
-65 15 -16 -12 0
159 7 -12 -8 0
-38 12 -1 8 0
-124 15 2 8 0
144 17 -11 -3 0
51 19 -3 -5 0
-142 15 -18 5 0
70 4 -1 8 0
125 24 2 10 0
-143 8 -13 0 0
-4 11 27 39 0
166 26 -2 13 0
-83 15 4 8 0
-82 4 -16 -18 0
157 6 13 11 0
-11 10 2 8 0
-120 8 11 29 0
132 13 -1 6 0
74 15 -1 9 0
-150 15 -2 3 0
63 19 -25 -22 0
131 11 0 3 0
-129 -2 -23 -20 0
-13 16 42 50 0
163 12 -1 16 0
-70 20 -7 4 0
-94 16 -5 8 0
171 15 -3 22 0
16 8 22 47 0
-133 13 -12 12 0
101 16 -18 -6 0
91 17 16 17 0
-153 -2 2 16 0
34 10 -6 -2 0
131 11 9 8 0
-116 16 -20 -9 0
-49 -21 14 32 0
165 5 11 27 0
-68 18 -33 -35 0
-115 16 -7 -10 0
145 37 -6 -11 0
32 10 -2 3 0
-145 2 -20 -12 0
91 18 -2 5 0
121 25 -6 1 0
-127 19 23 32 0
28 22 1 8 0
168 20 13 24 0
-94 12 -2 8 0
-68 -6 -12 -3 0
145 -12 -13 -5 0
-31 5 -2 -3 0
-126 13 1 2 0
140 21 -16 -11 0
40 -4 -6 1 0
-172 -7 -25 -15 0
53 -3 -21 -28 0
102 4 3 12 0
-141 1 -32 -40 0
-6 18 19 31 0
158 15 -1 1 0
-75 12 -7 1 0
-63 25 2 8 0
180 26 7 20 0
10 26 3 0 0
-134 6 -26 -9 0
107 2 32 43 0
53 -7 -30 -16 0
-160 -1 -21 -16 0
45 -3 7 10 0
119 -3 -34 -26 0
-129 9 15 26 0
-22 15 6 14 0
162 6 -13 7 0
-65 9 -2 3 0
-105 6 -1 0 0
147 6 -10 -4 0
26 26 6 12 0
-136 15 2 6 0
128 19 2 -2 0
75 3 0 -5 0
-136 16 22 9 0
14 2 3 23 0
170 37 -6 3 0
-89 30 50 47 0
-36 14 1 29 0
163 40 -12 14 0
-41 15 -4 -7 0
-112 3 -27 -18 0
128 0 -21 -6 0
26 11 -6 11 0
-154 5 -18 -16 0
79 28 -2 -9 0
112 30 20 29 0
-135 9 -3 -1 0
5 -3 -12 -5 0
161 16 3 15 0
-92 19 0 18 0
-66 12 -13 5 0
177 31 16 50 0
-31 -5 -28 -31 0
-120 8 26 20 0
121 4 9 2 0
55 22 3 23 0
-156 9 -10 1 0
76 10 22 9 0
134 21 3 -4 0
-127 10 4 8 0
-17 -9 -24 -4 0
154 7 5 3 0
-92 4 -16 -15 0
-83 14 -2 15 0
152 5 -5 2 0
-6 17 0 4 0
-142 0 -1 -9 0
119 31 -8 1 0
69 7 -10 0 0
-148 7 -14 -20 0
37 0 -12 -7 0
118 0 -42 -29 0
-104 23 -5 -23 0
-12 25 85 96 0
167 16 -29 5 0
-50 15 -4 27 0
-93 11 -19 15 0
148 10 3 0 0
19 14 7 4 0
-141 2 -11 -9 0
100 15 2 8 0
86 28 2 6 0
-136 9 -3 1 0
6 -1 -16 -12 0
143 14 -2 8 0
-106 13 -10 -3 0
-62 4 16 8 0
166 10 -11 -2 0
-42 21 10 7 0
-110 10 -7 7 0
152 23 8 16 0
46 15 28 22 0
-153 -3 -14 -36 0
74 5 -17 5 0
97 1 -24 7 0
-140 3 -11 16 0
4 4 -9 -13 0
169 36 16 10 0
-90 8 -2 6 0
-72 6 -1 -3 0
156 8 -3 7 0
-23 6 -3 0 0
-139 -3 -12 -10 0
133 15 5 15 0
46 2 -16 -17 0
-146 8 11 11 0
68 11 -18 -10 0
130 26 4 23 0
-149 8 -10 -1 0
-14 7 -48 -53 0
150 -1 24 -4 0
-61 21 8 30 0
-80 18 -2 7 0
155 13 -9 9 0
-3 5 0 4 0
-143 0 -10 3 0
115 14 -7 8 0
65 6 -7 -5 0
-150 4 -7 -3 0
40 6 -9 2 0
144 30 25 18 0
-135 -7 -16 -3 0
-27 20 -11 -2 0
157 12 -10 -2 0
-86 -5 0 12 0
-83 22 8 4 0
161 36 7 16 0
27 25 9 -1 0
-142 5 -26 -26 0
94 2 -9 13 0
83 4 -26 -14 0
-142 11 -24 -36 0
21 6 -4 -15 0
151 8 -4 -3 0
-110 10 -16 10 0
-48 11 4 25 0
170 17 7 14 0
-47 6 -6 -11 0
-112 21 -4 -8 0
142 12 4 5 0
42 11 0 2 0
-143 7 -1 -3 0
75 -5 -8 -5 0
115 18 0 0 0
-144 -5 -14 -14 0
2 12 -6 10 0
157 18 13 23 0
-94 14 -11 3 0
-76 -5 -17 -11 0
157 2 7 17 0
4 36 20 18 0
-129 6 -28 -28 0
127 9 42 53 0
75 21 9 5 0
-156 7 2 14 0
57 8 -24 -11 0
138 12 0 11 0
-139 0 -19 -14 0
-22 6 -6 4 0
158 12 -3 2 0
-83 1 -6 -8 0
-95 3 -4 7 0
168 28 11 20 0
-14 -2 -11 -4 0
-144 -3 -12 -17 0
120 22 1 6 0
82 20 14 17 0
-144 3 3 9 0
39 8 -1 2 0
142 21 -6 -4 0
-141 -6 -8 4 0
-34 14 -3 -11 0
159 11 -18 19 0
-54 10 -10 8 0
-106 9 -2 5 0
147 13 -1 14 0
20 12 9 2 0
-144 6 -17 -19 0
95 10 9 24 0
103 14 -6 12 0
-131 25 6 19 0
24 9 0 -4 0
141 11 -8 -4 0
-102 13 -7 0 0
-49 11 -6 -12 0
147 9 5 14 0
-36 6 -8 7 0
-108 13 5 2 0
142 24 30 29 0
46 15 -5 7 0
-170 -4 -14 -9 0
62 -1 -20 -4 0
127 15 -19 -14 0
-131 12 18 13 0
-6 0 -29 -8 0
147 4 -5 -3 0
-91 12 0 -2 0
-83 2 -3 -3 0
164 2 -2 3 0
-11 10 10 7 0
-112 34 7 5 0
142 31 3 -12 0
66 28 -3 12 0
-133 25 7 14 0
57 10 4 9 0
121 7 -2 -4 0
-140 0 -7 -19 0
-28 5 15 17 0
143 -6 -9 3 0
-65 13 5 1 0
-87 24 2 12 0
160 14 -43 -8 0
6 9 -5 13 0
-149 -6 -31 -24 0
98 6 3 -4 0
73 5 -14 -40 0
-151 -4 -14 3 0
40 15 -2 10 0
144 18 8 41 0
-113 11 -4 14 0
-34 0 -1 1 0
199 42 24 25 0
-32 26 25 27 0
-117 -9 -21 -19 0
155 20 -3 -2 0
20 26 -26 -8 0
-146 12 -6 3 0
107 24 2 8 0
94 11 -25 -2 0
-144 10 -7 -4 0
10 -3 -8 -11 0
154 13 0 7 0
-97 5 -12 -9 0
-48 21 2 10 0
161 8 -9 0 0
-57 -5 -14 -18 0
-92 25 5 -19 0
130 5 2 35 0
47 21 6 39 0
-149 0 -13 8 0
81 14 -16 -20 0
107 14 14 28 0
-131 12 -15 6 0
9 7 -16 6 0
144 4 -1 0 0
-78 26 11 18 0
-65 18 0 8 0
162 20 4 10 0
-15 7 -5 4 0
-121 16 -5 0 0
146 39 16 21 0
66 18 -2 8 0
-122 28 -2 11 0
54 6 -8 -1 0
127 16 4 3 0
-118 12 -6 -9 0
-14 8 9 29 0
165 20 4 24 0
-59 19 18 36 0
-87 11 -8 -5 0
168 28 28 32 0
20 23 0 7 0
-124 24 15 20 0
114 18 16 -3 0
91 16 10 15 0
-147 7 -6 -5 0
28 6 -11 -11 0
146 17 9 15 0
-138 -2 -9 -11 0
-22 25 18 17 0
160 12 -6 0 0
-41 16 8 22 0
-109 0 -14 -6 0
138 6 -17 -9 0
18 4 -4 -29 0
-139 24 4 28 0
83 8 -6 4 0
105 20 -16 17 0
-144 8 -24 -9 0
17 7 8 1 0
148 12 0 16 0
-132 -19 -26 -24 0
-33 31 20 6 0
166 26 12 29 0
-2 33 11 16 0
-132 1 -18 -9 0
134 11 -15 -12 0
40 13 -4 -1 0
-146 6 -2 0 0
85 16 9 14 0
105 7 -25 -20 0
-130 13 2 23 0
0 15 -9 2 0
148 3 -9 -16 0
-89 9 -7 2 0
-72 4 -14 24 0
162 15 -3 31 0
-17 9 -8 11 0
-134 4 -8 -24 0
117 2 -23 -31 0
64 8 9 0 0
-162 -6 -17 20 0
40 -7 -10 11 0
117 3 -21 -9 0
-114 23 10 18 0
-31 5 4 0 0
125 -14 -41 -35 0
-60 16 -9 1 0
-83 18 6 6 0
154 15 9 17 0
21 16 0 16 0
-160 -9 -9 -4 0
116 20 18 17 0
90 11 -20 -21 0
-149 5 1 21 0
46 8 -13 -6 0
138 8 -18 -18 0
-109 17 22 44 0
-39 10 5 18 0
165 18 -4 19 0
-44 10 -6 3 0
-120 -4 -17 -25 0
138 6 -8 -18 0
39 20 1 -3 0
-135 13 -15 1 0
109 21 26 34 0
100 9 -15 -12 0
-149 1 -20 -20 0
15 14 1 16 0
137 10 -23 14 0
-111 2 -20 8 0
-74 1 -4 -6 0
171 28 10 -3 0
-38 10 4 -2 0
-110 22 15 13 0
141 22 17 7 0
59 19 12 8 0
-150 5 14 7 0
93 32 48 54 0
132 23 -1 13 0
-125 14 5 12 0
11 30 -13 -4 0
147 7 -1 -6 0
-90 -3 -16 -8 0
-90 1 -13 -14 0
135 -11 -6 -5 0
-1 17 -3 -6 0
-134 9 -29 -1 0
123 13 3 11 0
61 3 -17 -21 0
-147 16 -9 22 0
45 9 -2 15 0
140 12 -9 11 0
-130 -2 -8 -3 0
-35 9 -2 -1 0
149 6 -11 -4 0
-61 10 -3 1 0
-114 -4 8 8 0
158 18 -1 -8 0
3 6 -11 9 0
-129 23 -14 -12 0
126 23 12 23 0
95 11 -22 -13 0
-139 12 -13 0 0
43 23 40 37 0
132 10 -13 -19 0
-99 25 -11 12 0
-44 3 -14 0 0
154 10 6 12 0
-48 16 -6 8 0
-113 2 9 3 0
140 11 20 5 0
22 7 -5 11 0
-158 1 -21 -2 0
82 11 -6 10 0
104 10 1 -1 0
-150 5 2 -9 0
3 0 -26 -31 0
132 5 0 -14 0
-88 17 -8 3 0
-61 14 5 30 0
175 33 -4 21 0
-11 10 -12 14 0
-131 11 -8 -9 0
133 13 6 1 0
55 7 -5 11 0
-149 15 26 34 0
60 4 -11 -23 0
129 15 -12 -6 0
-135 7 -11 -5 0
-12 8 -10 0 0
158 14 -3 4 0
-75 9 19 12 0
-100 -11 -14 -3 0
180 31 2 5 0
-7 13 -19 0 0
-133 18 -1 -17 0
108 5 -3 -1 0
61 0 -12 3 0
-144 18 0 -3 0
60 19 7 15 0
143 12 -16 2 0
-122 11 -32 -24 0
-34 4 31 20 0
188 21 1 -5 0
-52 1 30 15 0
-104 4 -31 -20 0
151 11 -12 9 0
13 14 -4 10 0
-151 4 -2 2 0
104 16 6 -1 0
96 17 9 10 0
-144 11 0 1 0
32 20 5 15 0
150 15 1 -2 0
-111 1 -11 -6 0
-50 12 3 4 0
157 6 -25 -20 0
-36 27 5 16 0
-111 7 -1 13 0
131 13 4 23 0
31 12 -22 -4 0
-145 8 8 13 0
78 2 -29 -30 0
99 15 0 -1 0
-155 -2 -32 -24 0
12 9 -10 -7 0
152 32 -2 13 0
-101 11 -11 -9 0
-75 1 -16 -15 0
164 20 -4 -2 0
-20 11 -13 -9 0
-115 17 -12 -5 0
124 6 2 11 0
40 18 -8 7 0
-132 16 8 24 0
56 3 -3 -2 0
141 24 13 17 0
-105 32 5 12 0
-28 -3 -13 -5 0
175 29 1 8 0
-90 0 -15 -12 0
-78 13 3 7 0
149 9 -20 -19 0
8 9 14 28 0
-135 6 -7 13 0
117 10 -7 6 0
75 12 -2 15 0
-151 6 -5 -2 0
44 10 8 19 0
140 20 -17 7 0
-128 2 -11 -9 0
-39 6 -1 -1 0
147 -1 -17 -10 0
-64 6 2 3 0
-97 8 -4 -2 0
149 9 2 10 0
19 11 0 6 0
-186 -31 -35 -33 0
103 16 -1 1 0
100 20 -10 1 0
-143 10 -10 -5 0
17 -7 -7 -5 0
156 23 6 5 0
-104 15 -1 -1 0
-39 20 -7 -3 0
157 9 -4 4 0
-32 11 -6 4 0
-112 15 1 15 0
144 11 -10 7 0
37 8 -16 8 0
-163 2 -25 -3 0
74 -2 -9 1 0
122 28 17 17 0
-142 8 16 -3 0
11 17 15 2 0
154 11 8 -10 0
-95 3 -5 -7 0
-64 13 -7 4 0
157 16 -30 0 0
-10 19 -20 0 0
-131 10 -19 -8 0
130 14 13 7 0
60 11 20 6 0
-158 2 21 6 0
64 8 11 1 1
123 11 0 1 1
-115 25 4 12 1
-27 -2 -16 -2 1
171 26 2 12 1
-72 15 -6 7 1
-90 0 -14 7 1
157 15 -15 6 2
11 20 -6 12 2
-142 4 -28 -6 2
118 14 -12 10 2
83 17 -3 4 2
-129 17 -17 3 3
64 23 -31 9 3
137 5 -45 -5 3
-116 12 -7 16 3
-30 15 34 18 3
172 20 28 9 4
-59 9 -16 -8 4
-116 -3 -40 -16 4
148 8 6 15 4
15 3 53 11 4
-136 9 44 12 5
105 12 2 15 5
113 22 -33 13 5
-139 12 -17 0 5
30 21 -1 3 5
152 28 19 1 6
-105 0 -19 3 6
-44 11 1 7 6
159 9 12 4 6
-50 -5 40 8 6
-135 -2 32 -18 7
119 -1 -63 -18 7
21 -5 -137 -28 7
-142 -1 -56 0 7
65 -8 42 18 7
106 3 100 14 7
-149 8 43 -8 8
8 14 -7 -2 8
161 20 -12 7 8
-75 22 20 33 8
-65 15 12 14 8
177 24 -23 13 8
-8 13 -40 0 9
-136 0 -70 -12 9
104 -10 -76 -8 9
80 9 -44 24 9
-146 6 23 16 9
77 29 77 28 9
137 20 43 5 10
-100 15 -65 -24 10
-19 11 -93 -5 10
163 14 -10 8 10
-63 15 95 17 11
-97 5 76 14 11
134 0 -43 -19 11
-10 1 -79 -11 11
-147 -2 -26 0 12
107 10 40 16 12
73 9 5 2 12
-142 15 -14 -2 12
32 8 1 -6 12
134 16 71 10 13
-116 1 41 -3 13
-27 18 -22 -11 13
151 12 -34 1 13
-50 10 -10 3 14
-99 7 -16 4 14
137 12 -24 1 14
24 13 -19 17 14
-135 7 29 14 15
85 9 21 -6 15
92 13 -18 -25 15
-130 13 -68 -19 16
23 13 -108 -16 16
141 12 -75 -6 16
-95 3 9 3 16
-58 15 102 24 17
155 16 114 50 17
-10 25 17 20 17
-104 15 34 35 18
144 25 71 21 18
64 23 52 15 18
-131 19 6 15 18
79 21 -21 9 19
114 20 -8 3 19
-144 -6 -19 -22 19
-23 -14 -76 -38 20
131 -7 -115 -30 20
-88 -9 -135 -26 20
-75 -4 -79 -15 21
150 17 19 2 21
-21 5 54 24 21
-124 6 74 5 22
108 3 -18 -14 22
58 7 -19 2 22
-153 -5 34 -11 22
49 10 78 17 23
125 28 39 6 23
-122 24 -71 -9 23
-25 8 -94 -19 23
146 9 -19 26 24
-51 24 45 24 24
-56 30 26 31 24
165 40 20 16 25
11 20 14 -10 25
-134 7 69 2 25
98 11 -63 -17 25
77 9 -158 -14 26
-137 10 -52 4 26
24 4 61 22 26
136 13 87 24 27
-116 2 13 -1 27
-52 0 -22 5 27
154 7 63 11 28
-52 14 114 26 28
-105 10 35 -1 28
144 14 -22 -6 28
29 14 -100 -12 29
-134 13 -132 -28 29
92 -2 -146 -14 29
91 15 57 35 30
-133 8 144 27 30
32 27 38 8 30
154 22 -112 -24 31
-82 17 -120 -12 31
-75 5 35 26 31
139 16 140 34 32
-30 15 83 18 32
-109 3 24 3 32
142 3 13 -9 32
40 8 -12 -4 33
-139 8 -61 -9 33
57 4 -101 -1 33
100 10 -1 10 34
-124 9 22 -4 34
-7 24 -78 -8 34
148 12 -121 -18 35
-72 4 -64 -15 35
-66 11 68 21 35
137 23 138 16 35
7 25 -22 -2 36
-122 20 16 18 36
108 12 26 -9 36
55 1 136 28 36
-131 12 17 -2 37
39 6 -70 2 37
124 12 -64 -5 37
-110 6 40 12 37
-21 13 40 14 38
166 14 -36 12 38
-52 10 -85 8 38
-97 0 -19 2 38
146 18 23 19 39
19 14 -40 -22 39
-139 -3 -77 -24 39
91 12 -4 -3 40
94 12 98 66 40
-139 11 9 5 40
31 3 -158 -27 40
125 8 -116 -9 41
-97 15 111 18 41
-46 14 228 33 41
162 19 118 14 41
-36 16 -146 -42 42
-107 6 -180 0 42
128 8 41 24 42
31 17 172 35 42
-127 10 23 -16 43
85 15 -141 -37 43
94 13 -101 -1 43
-135 15 80 18 43
7 14 96 17 44
153 11 -46 -15 44
-89 2 -104 -10 44
-57 16 12 11 44
154 17 88 29 45
-23 13 -25 -9 45
-129 5 -155 -38 45
131 9 -99 -6 45
51 7 130 17 46
-125 25 150 40 46
81 16 -7 -17 46
127 22 -96 -3 46
-138 -1 -15 -28 47
-28 32 151 30 47
137 15 85 29 47
-75 14 -125 -5 47
-98 2 -153 -14 47
149 4 -10 -29 48
-9 9 69 19 48
-115 16 -29 8 48
130 15 -88 -21 48
64 12 -92 -7 49
-154 7 172 47 49
43 0 85 -10 49
126 3 -41 0 49
-112 15 -63 0 50
-6 10 -9 17 50
157 11 120 25 50
-51 17 11 -15 50
-94 7 -68 -10 51
121 5 -44 14 51
-2 9 33 11 51
-117 2 59 1 51
102 6 66 -1 52
91 17 -109 -41 52
-133 11 -139 -25 52
35 14 12 13 52
129 13 119 48 53
-90 28 44 6 53
-42 12 -115 -18 53
148 12 -161 -20 53
-54 11 44 33 54
-104 14 77 5 54
136 9 15 -23 54
25 7 -178 -17 54
-130 7 129 44 55
65 15 112 8 55
101 13 24 7 55
-117 6 -63 -8 55
23 13 -98 -11 56
150 22 6 24 56
-88 0 -41 -24 56
-62 9 -28 -18 56
135 9 47 3 57
-33 9 -4 4 57
-108 14 50 9 57
130 15 53 31 57
68 22 -101 -11 58
-132 4 -147 -6 58
58 14 -1 21 58
111 12 188 18 58
-135 7 69 15 59
1 13 -158 -23 59
157 7 -74 -1 59
-77 0 139 8 59
-69 6 77 15 60
149 7 -233 -60 60
-19 16 -205 0 60
-113 13 133 51 60
104 14 265 68 60
78 6 9 -9 61
-116 19 -226 -37 61
38 17 -92 -21 61
115 20 256 74 61
-102 24 131 26 62
-20 4 -129 -31 62
160 16 -302 -41 62
-60 10 13 27 62
-91 4 207 22 62
133 11 80 -11 63
12 11 -119 -7 63
-129 7 -56 8 63
99 10 144 8 63
88 32 50 9 63
-137 2 -95 -15 64
11 -3 -164 -13 64
136 10 159 25 64
-107 5 113 17 64
-41 7 -110 -19 65
157 13 -152 -9 65
-47 16 -147 -27 65
-132 8 139 44 65
131 10 104 23 65
32 15 15 -9 66
-128 17 -82 -2 66
82 1 -68 -25 66
95 17 47 18 66
-125 6 154 9 66
4 15 50 8 67
163 21 -124 -11 67
-99 4 -292 -40 67
-91 -4 -16 0 67
167 15 154 11 67
-21 9 183 10 68
-95 16 -110 -37 68
134 12 -153 27 68
46 13 64 12 68
-131 19 136 35 69
59 15 -64 -17 69
124 10 -65 -4 69
-130 4 7 -23 69
-19 1 100 -3 69
141 6 37 -1 70
-91 7 -126 3 70
-82 14 32 24 70
146 25 23 26 70
6 8 -17 5 71
-124 3 -97 -17 71
118 15 167 41 71
69 15 125 18 71
-125 16 -105 -18 71
41 5 -126 -21 72
119 4 41 12 72
-114 9 54 17 72
-33 15 -113 -26 72
153 15 -155 -24 73
-61 14 36 31 73
-90 16 128 50 73
144 13 37 -9 73
15 8 -172 -12 74
-120 2 21 5 74
83 12 129 6 74
83 9 43 -18 74
-141 22 -40 -37 75
20 -9 -119 -13 75
150 16 74 48 75
-118 6 127 22 75
-29 20 84 38 76
151 17 -188 -27 76
-54 10 -167 -5 76
-84 3 47 2 76
140 16 173 24 77
55 19 -22 -23 77
-136 -4 -225 -29 77
52 1 -94 -4 77
111 21 93 35 78
-131 18 228 72 78
-2 15 31 6 78
158 12 -150 6 78
-107 11 30 2 78
-57 6 76 12 79
152 8 4 -14 79
-2 13 -117 -60 79
-115 10 -177 -7 79
122 7 -11 15 80
57 12 132 53 80
-145 -2 -24 -2 80
48 -6 -133 -32 80
102 7 18 -8 81
-107 12 194 8 81
-19 20 107 12 81
158 21 -55 -1 81
-70 8 -107 -16 81
-98 8 60 54 82
167 13 123 30 82
14 5 -108 -29 82
-127 3 -225 -60 82
96 15 -74 6 83
65 8 96 59 83
-136 12 31 -14 83
11 8 -167 -52 83
111 23 -8 -68 84
-85 15 172 43 84
-23 22 30 3 84
163 13 -145 -23 84
-30 23 64 38 85
-115 31 181 44 85
156 18 116 35 85
46 18 -130 14 85
-140 6 -141 4 86
84 15 -38 -8 86
87 12 117 -11 86
-139 13 28 -38 86
30 9 -68 0 86
132 16 -156 -9 87
-108 12 -45 32 87
-61 21 233 51 87
176 19 94 16 87
-27 15 19 14 88
-100 4 -292 -65 88
138 12 -68 9 88
35 19 197 35 88
-146 4 4 -8 89
70 9 -156 -16 89
94 -11 -94 -17 89
-108 21 196 24 89
30 7 335 59 90
172 21 72 12 90
-60 28 -281 -28 90
-86 0 -210 -3 90
146 21 29 12 90
-9 22 119 23 91
-120 5 81 -3 91
132 11 -130 -54 91
43 2 -88 30 91
-160 12 119 47 91
55 15 -31 -19 92
129 26 24 9 92
-102 12 -21 8 92
-4 11 -25 -26 92
164 6 46 36 92
-91 8 98 -1 93
-92 -1 57 5 93
153 15 -17 -17 93
4 2 -212 -48 93
-143 -1 -67 -11 93
104 24 165 48 93
60 25 10 24 94
-149 5 -54 12 94
43 4 4 19 94
165 49 166 53 94
-46 78 59 49 94
28 74 -136 23 94
201 59 -36 78 95
-44 26 250 53 95
-98 22 151 7 95
170 35 -141 -8 95
46 39 -251 25 95
-114 30 146 62 96
127 34 130 32 96
87 8 3 3 96
-144 17 -227 -42 96
92 60 31 36 96
203 80 351 115 96
-39 87 254 128 97
-56 -6 -312 -85 97
123 -20 -269 0 97
-172 -96 127 -71 97
-287 -159 -31 -148 97
-38 -185 -124 -191 97
-109 -129 -304 -139 98
-227 -84 -208 -127 98
26 -69 25 -53 98
66 -42 9 -41 98
-203 -22 -104 -48 98
6 4 20 40 98
163 13 -163 -39 99
-92 14 -102 47 99
-75 9 199 29 99
178 41 190 41 99
3 30 124 29 99
-107 16 -181 -27 99
149 33 -64 30 100
90 48 74 44 100
-132 32 -10 19 100
85 8 -190 4 100
162 31 -22 -42 100
-106 34 33 4 101
1 44 330 45 101
304 147 -12 94 101
50 130 -6 136 101
-11 147 232 152 101
190 31 170 36 101
-49 -48 117 -35 102
-219 -72 -306 -149 102
64 -52 -363 -75 102
32 -38 74 13 102
-199 -32 9 -21 102
-9 -28 -139 -81 102
117 -8 -37 -35 103
-133 -4 93 -11 103
-41 13 109 31 103
146 18 -36 18 103
-42 8 -105 -15 103
-99 7 -68 8 104
141 22 25 24 104
32 10 -103 -14 104
-139 9 -171 -28 104
103 35 242 25 104
102 30 45 48 104
-137 5 -247 -63 105
39 12 -157 -48 105
145 24 278 91 105
-101 30 256 59 105
-58 18 39 19 105
165 5 -339 -48 105
-28 22 51 33 105
-122 21 114 -5 106
168 30 -1 -9 106
52 9 -26 -17 106
-134 18 -6 24 106
78 4 -142 -36 106
126 43 34 63 106
-110 41 138 28 107
31 48 200 70 107
190 39 5 32 107
-93 -7 -387 -50 107
-99 -1 96 66 107
133 -4 139 18 107
-34 1 165 8 107
-140 -8 -208 -65 108
110 -27 -505 -65 108
61 12 242 63 108
-159 6 239 33 108
57 18 262 37 108
144 4 -453 -99 108
-121 8 -188 13 109
-20 16 282 36 109
162 33 302 44 109
-60 32 -105 -14 109
-72 -6 -501 -88 109
162 14 48 27 109
0 23 358 23 109
-158 8 215 21 110
111 7 -185 -35 110
73 -22 -227 8 110
-143 20 81 1 110
28 1 157 44 110
143 20 8 -13 110
-121 -6 -180 -43 111
-35 -8 -242 -31 111
177 22 153 52 111
-40 29 116 1 111
-113 11 -30 -4 111
155 27 32 24 111
27 16 -15 16 112
-148 19 -46 -1 112
105 12 -216 -25 112
94 -3 -20 -27 112
-153 6 227 -17 112
21 28 308 73 112
155 16 -2 35 112
-92 0 -464 -45 113
-62 -5 -46 11 113
158 16 189 -1 113
-31 20 151 22 113
-124 10 -109 -27 113
119 -13 -344 -47 113
54 24 191 9 114
-146 20 208 32 114
78 29 149 25 114
115 0 -416 -55 114
-136 -1 -292 -11 114
-18 5 270 63 114
152 38 278 39 115
-80 32 38 -2 115
-89 -15 -324 -33 115
184 3 -127 -91 115
10 15 68 8 115
-138 34 353 64 115
131 33 49 42 115
85 12 -55 8 115
-148 -1 -190 -82 116
65 13 -72 9 116
140 23 7 -5 116
-118 21 21 31 116
-35 5 -43 18 116
149 5 -153 -41 116
-59 26 69 4 116
-100 29 249 74 116
166 31 -112 5 117
-1 -4 -295 7 117
-158 21 149 6 117
105 20 176 3 117
87 32 194 8 117
-145 1 -322 -64 117
11 -26 -204 -20 117
141 30 266 70 117
-120 18 154 43 117
-39 26 -43 5 117
167 -6 -402 -36 117
-43 15 20 -75 117
-111 20 228 55 118
156 34 234 31 118
40 18 -143 0 118
-142 -8 -359 -4 118
80 23 191 13 118
108 11 106 38 118
-156 5 69 5 118
5 -8 -137 21 118
161 15 -148 -22 118
-109 9 182 24 118
-67 10 97 -12 118
159 -10 -198 -64 118
-28 -2 -120 20 118
-123 23 92 22 118
143 12 165 54 118
64 22 66 20 118
-142 11 -198 -18 118
66 -12 -148 -25 119
119 -4 -117 0 119
-145 -1 -134 -17 119
-11 11 220 -5 119
159 4 -137 -82 119
-67 15 142 8 119
-73 33 98 32 119
172 20 24 60 119
-3 29 68 41 119
-144 -9 -244 -81 119
112 -2 -137 33 119
68 16 229 4 119
-158 13 40 -10 119
66 -14 -236 -105 119
146 21 -16 35 119
-123 28 157 36 119
-33 33 282 61 119
170 7 -187 -59 119
-52 -7 -325 2 119
-106 17 195 10 119
151 36 249 56 119
32 23 -101 -34 119
-158 -28 -375 -24 119
105 30 171 79 119
92 16 250 45 119
-144 32 155 37 119
27 -25 -353 -75 120
159 -4 -140 -29 120
-118 22 129 20 120
-49 5 182 28 120
175 17 -92 -6 120
-56 -25 -213 -30 120
-124 -11 -1 -30 120
132 5 -47 -38 120
32 -11 26 -11 120
-170 1 78 0 120
104 22 -62 -8 120
102 8 -78 50 120
-145 37 232 7 120
12 12 104 17 120
185 13 -181 -91 120
-119 -25 -327 10 120
-74 22 221 68 120
159 24 332 81 120
-18 27 130 5 120
-131 -40 -512 -140 121
148 28 20 71 121
57 30 317 78 121
-142 30 156 67 121
65 3 -63 -16 121
134 3 -176 -32 121
-147 -17 -167 -51 121
-5 17 71 38 121
160 16 131 -12 121
-84 24 72 27 121
-80 12 -121 -6 121
163 -3 -213 -29 121
2 32 -35 -3 121
-158 -1 162 -39 121
134 18 54 8 121
71 -3 17 27 121
-155 18 20 36 121
47 17 90 11 121
133 33 7 13 121
-126 13 -72 8 121
-32 0 -81 -18 121
179 11 77 -8 121
-62 21 -25 9 121
-106 11 -3 -4 121
151 -9 -124 -36 121
30 31 28 18 121
-152 18 19 11 121
109 23 85 33 121
95 12 32 14 121
-156 1 -31 0 121
21 7 -74 -20 121
154 14 -70 4 121
-117 6 34 -22 121
-61 11 34 14 121
168 16 6 -7 121
-45 14 -156 -2 121
-117 14 37 8 121
147 9 18 8 121
37 15 93 19 121
-147 17 -66 -4 121
88 15 -92 -18 121
124 25 38 12 121
-140 12 79 6 121
8 13 7 22 121
154 0 -132 -28 121
-97 -4 -54 -13 121
-72 23 52 -4 120
168 28 48 12 120
-16 12 -54 10 120
-140 -12 -84 -42 120
160 22 127 46 120
67 19 101 4 120
-148 24 61 19 120
69 8 -80 -20 119
129 17 -39 5 119
-138 4 25 15 119
-16 5 -5 5 119
159 5 3 1 119
-83 1 -51 -16 119
-93 2 -43 -12 118
156 8 40 3 118
-4 8 -21 -9 118
-137 -4 -89 -15 118
120 7 8 -8 118
81 7 14 -11 117
-155 12 148 30 117
47 10 61 29 117
135 -2 -144 -13 117
-124 24 11 31 117
-41 4 27 37 116
165 13 88 14 116
-63 2 3 -2 116
-121 -4 -85 -27 116
156 4 -4 5 115
17 0 20 -4 115
-151 -13 0 -16 115
97 -5 -23 -15 115
102 12 3 9 114
-152 -4 -54 -3 114
16 -3 11 22 114
169 6 -23 -22 113
-119 -2 -25 7 113
-64 7 84 50 113
161 8 42 16 113
-51 4 42 8 112
-138 -4 -24 -24 112
143 6 -54 14 112
48 14 4 57 111
-136 9 -76 -14 111
108 2 50 10 111
120 13 33 14 110
-141 4 33 -2 110
4 10 -72 7 110
157 14 -69 2 109
-101 10 13 0 109
-65 12 94 27 109
170 12 -11 -17 108
-4 16 -14 2 108
-154 -2 -73 7 107
153 13 78 36 107
35 7 5 1 107
-164 -2 -20 -4 106
88 3 12 1 106
151 5 20 21 106
-112 6 29 15 105
11 4 -57 -12 105
155 13 -47 -6 105
-97 3 -5 -1 104
-101 2 -44 -22 104
163 3 -96 -18 104
-22 2 -37 -10 103
-158 10 29 17 103
108 15 98 11 103
82 18 43 5 102
-154 5 -143 -14 102
35 11 14 13 102
140 20 10 18 101
-121 31 116 18 101
-43 12 -2 -3 101
166 10 -37 7 100
-42 18 4 16 100
-109 10 -42 -17 100
149 10 -48 -11 99
19 15 12 5 99
-164 1 37 9 99
122 10 42 7 98
104 11 -12 -3 98
-141 12 -43 -4 98
27 13 -27 16 97
150 13 -48 11 97
-101 12 -15 13 97
-53 8 56 5 96
162 3 59 7 96
-26 18 4 7 95
-122 9 -134 -21 95
150 19 -23 16 95
58 23 44 41 94
-144 12 30 2 94
76 11 16 2 94
114 12 28 -12 93
-148 2 23 -3 93
-15 -3 -21 -17 92
155 12 -86 -26 92
-108 -2 -41 12 92
-78 10 61 28 91
177 11 59 29 91
-4 8 -4 -13 91
-129 -12 -123 -40 90
123 11 -43 2 90
56 6 58 6 89
-152 15 42 9 89
60 8 15 -5 89
118 17 -102 -17 88
-129 5 -83 1 88
-22 15 62 14 87
170 12 79 20 87
-54 21 64 13 86
-95 7 -21 -9 86
143 11 -74 -3 86
15 13 -38 2 85
-137 2 26 -11 85
120 28 28 -7 84
82 12 -12 1 84
-144 14 -55 -11 83
43 19 -87 -19 83
142 16 41 13 82
-98 20 104 44 82
-46 11 51 23 81
169 19 -19 0 81
-44 16 -88 -15 81
-108 0 -19 -5 80
136 12 19 10 80
15 12 -9 -4 79
-144 5 -100 -2 79
74 15 36 11 78
98 5 37 -21 78
-161 -2 82 4 77
24 -3 -40 -45 77
157 16 -22 20 76
-99 18 1 25 76
-73 -7 -168 -25 75
150 18 -35 13 75
-28 16 128 26 74
-115 13 166 18 74
133 7 95 25 73
37 -4 -78 -29 73
-158 -9 -69 -18 72
53 1 -18 -3 72
117 7 -27 -2 71
-132 12 -33 -6 71
-9 15 -49 -6 70
160 22 -28 16 70
-67 44 2 10 70
-69 20 76 23 69
174 28 -133 -21 69
13 20 -112 -9 68
-116 22 40 28 68
101 20 176 63 68
55 6 184 70 67
-154 -4 -41 -8 67
42 0 -78 -24 66
109 4 16 -5 66
-126 3 34 0 66
-34 -6 1 -14 65
142 8 -12 -7 65
-73 -1 -30 -16 64
-87 3 -49 -4 64
147 12 -34 5 64
39 20 -33 12 63
-127 16 -61 0 63
102 14 -38 16 63
83 20 -33 3 62
-123 30 22 19 62
23 15 -14 -23 62
132 12 -37 -5 61
-101 9 -47 -36 61
-38 0 54 11 61
152 11 141 39 60
-39 15 115 39 60
-102 20 8 12 60
137 11 -91 -23 59
46 12 -64 -11 59
-131 9 60 32 58
75 12 53 23 58
109 15 -32 3 58
-130 23 -116 2 57
24 31 -20 16 57
168 23 81 20 57
-68 9 73 0 56
-66 5 -25 -18 56
139 12 -69 -9 56
-19 12 -33 13 55
-114 7 5 -2 55
121 14 -5 10 55
48 8 -74 -22 54
-140 15 -74 -16 54
50 -1 26 13 54
102 6 138 56 53
-118 5 40 -6 53
-17 1 -112 -36 53
135 13 -133 -6 52
-75 6 101 47 52
-79 1 129 21 52
145 12 79 10 51
6 10 -28 -10 51
-122 0 -57 -4 51
108 14 14 13 50
82 14 8 9 50
-122 16 -52 -3 49
48 15 -94 3 49
140 26 -16 32 49
-89 17 56 19 49
-7 27 81 29 48
164 23 18 23 48
-35 28 -63 7 48
-98 9 -91 8 47
131 11 34 20 47
20 8 88 6 47
-146 -6 42 -25 46
74 -5 -32 -31 46
68 -2 -75 -10 46
-147 -4 -12 -8 45
19 5 -17 -11 45
128 6 -93 -34 45
-108 -6 -111 -10 44
-67 0 22 -14 44
143 1 104 24 44
-44 2 65 -1 43
-111 6 -15 -1 43
119 14 -75 6 43
44 16 -14 13 42
-123 16 -21 0 42
83 18 -50 -10 42
113 20 -36 8 41
-103 30 32 25 41
10 17 124 35 41
136 17 64 4 40
-69 13 -9 -11 40
-69 2 -86 -13 40
144 12 -11 5 39
-18 8 -17 7 39
-122 -1 -34 -9 39
110 4 -9 11 38
56 9 -36 3 38
-132 10 -61 -18 38
53 10 24 16 38
108 10 76 -2 37
-125 2 65 -6 37
-24 4 8 -4 37
149 16 -55 0 36
-53 17 8 20 36
-83 21 14 -3 36
132 8 -2 0 36
10 25 0 5 35
-121 12 12 0 35
111 22 17 8 35
85 15 -54 3 35
-126 19 -50 -1 34
46 18 -56 1 34
143 16 18 20 34
-104 17 71 13 34
-48 -4 27 -2 34
180 40 0 16 33
-45 18 -56 -6 33
-92 20 -15 14 33
121 6 9 -6 33
26 18 38 12 32
-134 15 -2 8 32
92 18 7 10 32
85 2 -18 -2 32
-128 6 -13 3 32
18 12 -6 5 31
138 12 -26 3 31
-97 7 2 5 31
-63 -4 -26 -11 31
140 1 -38 -4 30
-31 2 -29 5 30
-109 2 -12 -3 30
112 2 -32 -4 30
51 19 -30 -4 29
-126 11 -46 18 29
80 19 60 20 29
106 23 82 9 29
-119 13 48 -6 28
4 0 0 -4 28
140 7 -18 3 28
-73 0 18 9 28
-67 14 6 2 27
150 19 -27 2 27
-11 8 -66 9 27
-110 15 21 18 27
104 11 43 7 26
46 4 31 -7 26
-113 20 13 2 26
48 11 -35 5 26
125 23 -3 22 25
-101 16 -8 4 25
-9 12 -18 -4 25
161 29 -6 30 25
-64 13 -10 13 25
-70 23 -4 10 25
144 26 14 11 24
9 19 -6 9 24
-114 16 -9 3 24
100 21 -6 9 24
72 1 -11 -8 24
-132 9 -6 3 24
19 5 -16 -4 23
119 8 -17 -9 23
-85 23 -6 2 23
-49 2 -5 0 23
134 9 0 -3 23
-32 13 8 15 22
-101 5 -9 -6 22
140 25 17 11 22
29 7 17 -3 22
-129 2 -3 -11 22
78 4 -5 0 21
89 10 -10 1 21
-90 39 14 19 21
15 10 -9 -1 21
149 35 12 13 21
-74 12 -5 12 20
-69 2 -10 8 20
166 24 6 17 20
-12 44 13 13 20
-101 14 2 10 19
120 21 4 14 19
23 -1 -27 -7 19
-119 12 -8 4 19
55 14 -5 -4 18
107 32 1 6 18
-128 -7 -11 -14 18
-13 5 -6 5 18
142 22 6 8 17
-71 6 1 0 17
-80 -5 -13 -1 17
137 16 -1 9 17
1 21 2 14 17
-121 0 -15 -9 16
107 -7 -14 -3 16
68 3 6 12 16
-126 9 -1 4 16
48 8 -1 -15 15
137 32 21 37 15
-106 3 -34 0 15
-22 11 -32 2 15
155 21 -39 4 15
-33 27 44 30 15
-88 19 44 6 14
144 24 68 31 14
4 6 23 -13 14
-136 14 22 4 14
94 12 9 7 14
72 8 -6 -9 14
-131 -1 -32 6 14
32 3 -20 4 13
141 28 -6 20 13
-109 8 -16 -16 13
-33 12 0 -2 13
155 9 6 9 13
-39 22 2 15 13
-99 10 2 7 13
121 16 -5 -9 13
33 6 7 27 13
-140 0 -26 -25 13
76 30 21 25 12
121 47 10 -1 12
-126 14 24 20 12
9 7 -23 -2 12
174 47 33 44 12
-89 6 -22 -11 12
-49 20 24 47 12
124 -7 -41 -26 12
-41 3 -26 -23 12
-120 -5 -14 -8 12
109 -4 -6 4 12
39 5 -22 -8 12
-149 -6 -34 -15 12
34 -18 -36 -34 12
84 -15 -21 -11 12
-106 30 -1 4 12
-13 18 -7 1 12
170 49 40 19 12
-47 18 19 32 12
-73 21 -4 13 12
150 33 4 27 11
8 12 -4 0 11
-92 29 22 17 11
105 16 33 36 11
83 19 -2 13 11
-127 4 0 -5 11
57 23 7 -7 11
121 18 20 22 11
-98 17 -12 -4 11
-47 -6 -39 -4 10
138 10 -22 -10 10
-60 7 -7 -8 10
-91 13 17 21 10
139 12 -17 13 10
18 9 1 15 10
-129 15 -17 -5 10
92 15 2 7 9
60 -13 -5 -1 9
-99 31 9 13 9
6 -1 -19 -14 9
136 31 -5 -3 9
-99 -1 5 8 9
-44 2 -5 -8 8
138 -8 0 -1 8
-30 18 -7 -19 8
-103 9 4 12 8
133 32 -9 12 8
38 16 12 14 8
-142 -23 3 -13 8
80 26 -4 13 7
112 26 1 22 7
-119 38 -20 7 7
-2 0 -8 -1 7
139 2 -7 -7 7
-96 7 6 21 7
-90 -24 -31 -28 7
153 3 9 20 7
-14 20 1 10 7
-127 0 -11 -31 7
128 26 76 80 6
47 -9 -43 -39 6
-144 5 -14 0 6
85 34 9 34 6
127 17 -3 5 6
-119 12 -7 -13 6
-10 -4 6 0 6
148 9 21 14 6
-64 31 17 21 5
-72 10 -39 -15 5
164 34 15 23 5
-4 -7 4 19 5
-119 -14 -2 10 5
95 1 -22 -10 5
76 9 -6 6 5
-122 30 14 17 4
48 12 -8 1 4
128 9 4 5 4
-120 -6 -18 -26 4
-71 -28 -22 -27 4
135 -12 -24 -43 4
-42 18 24 26 4
-101 28 0 -16 3
134 18 -1 12 3
5 13 10 4 3
-139 -7 -55 -27 3
83 0 52 71 3
98 16 -19 19 3
-130 6 -1 -5 3
17 4 3 14 2
141 10 -8 -14 2
-96 11 6 6 2
-51 11 4 -2 2
151 12 7 5 2
-29 17 1 -8 2
-79 38 16 23 2
119 10 -4 -3 1
44 -13 -20 -29 1
-116 17 -7 4 1
85 40 26 31 1
110 43 -16 -4 1
-109 35 22 50 1
18 24 -9 12 1
140 20 -8 16 1
-78 6 -4 7 1
-73 -6 -32 -31 0
159 -2 -21 -15 0
-9 24 26 30 0
-124 2 -33 -15 0
120 12 11 31 0
51 -1 -39 -22 0
-132 3 -11 -12 0
51 -5 -16 -13 0
114 4 8 15 0
-113 12 -5 -22 0
-17 12 11 18 0
150 7 -20 2 0
-54 22 31 33 0
-126 -50 -18 -28 0
174 41 32 39 0
8 25 -19 27 0
-127 36 -35 8 0
104 21 -18 -4 0
61 -18 26 37 0
-162 -4 -44 -41 0
29 6 4 14 0
130 16 -9 4 0
-107 13 -1 -8 0
-33 5 5 3 0
153 11 1 12 0
-56 2 -5 -5 0
-100 5 -8 -5 0
129 5 -12 1 0
9 4 -13 -38 0
-147 -9 -7 -14 0
89 -1 -19 9 0
98 22 -37 -11 0
-133 14 -26 -20 0
13 19 39 43 0
163 20 12 41 0
-98 -2 9 14 0
-57 19 -17 2 0
120 -9 -11 -15 0
-2 40 29 27 0
-127 3 -31 -11 0
135 14 2 10 0
58 13 -13 -25 0
-151 6 -11 28 0
56 1 7 -8 0
125 10 17 13 0
-131 13 -11 12 0
2 19 -8 -6 0
174 32 28 61 0
-108 -20 -18 -14 0
-82 -11 -23 -20 0
127 0 -12 -1 0
0 17 9 39 0
-127 13 2 9 0
129 26 24 9 0
70 12 1 -5 0
-136 9 5 2 0
48 12 -12 4 0
134 25 -69 -4 0
-118 -3 -88 -18 0
-23 13 -91 0 0
145 4 23 38 0
-59 13 117 29 0
-92 6 160 11 0
147 7 88 -16 0
9 14 -7 -2 0
-137 5 -32 -4 0
96 -1 -4 1 0
78 16 4 4 0
-143 15 -6 5 0
37 12 -21 3 0
140 16 -23 5 0
-107 11 -32 -4 0
-57 2 -28 -2 0
165 15 -26 1 0
-27 20 -39 14 0
-88 19 -61 5 0
128 0 -68 -6 0
47 24 -84 6 0
-127 13 -66 1 0
73 7 -41 3 0
111 21 73 28 1
-133 5 117 -20 1
6 10 108 4 1
141 2 35 -10 1
-100 16 9 7 1
-73 5 68 15 2
148 8 105 6 2
-28 8 52 -6 2
-118 1 -23 -8 3
121 12 -23 15 3
55 9 -27 2 4
-152 8 -40 -2 4
74 14 -59 3 5
115 12 -47 -2 5
-127 -1 -37 2 6
2 19 -26 0 6
147 15 -43 -3 7
-67 17 -32 3 7
-65 18 -16 13 8
168 31 -71 1 8
20 30 -98 -4 9
-112 19 -125 12 9
120 17 -3 20 10
61 7 114 4 10
-137 16 20 -40 11
54 13 74 12 11
116 16 73 30 12
-133 5 175 39 12
-45 0 155 38 12
135 6 -14 -15 13
-65 1 -50 -8 13
-104 0 -60 -16 14
134 4 -109 -20 14
-2 2 -161 -30 15
-141 1 -203 -7 15
72 -12 32 13 16
72 -8 128 0 16
-121 -4 24 -39 17
24 0 -91 -34 17
146 19 -20 2 18
-100 10 160 86 18
-41 12 119 33 19
153 12 -51 0 19
-22 25 -98 -6 20
-89 30 54 25 20
158 41 70 41 21
56 26 -8 13 21
-126 3 -108 -19 22
60 -9 -84 -20 22
90 2 17 -21 23
-126 1 21 -17 23
14 8 40 11 24
140 15 -119 -21 24
-96 11 30 44 25
-74 5 84 9 25
126 6 126 48 26
-11 12 -26 9 26
-119 -4 -72 -19 27
118 11 -7 1 27
64 18 9 6 28
-126 15 -24 -12 28
63 9 -50 7 29
117 13 -108 -17 29
-128 -7 -57 -3 29
-18 1 -13 -35 30
134 10 53 20 30
-67 19 -2 14 31
-86 13 -34 26 31
139 17 -3 30 32
7 30 131 34 32
-114 10 97 9 32
95 10 29 -2 33
58 21 3 -16 33
-119 16 21 4 34
61 13 -44 2 34
150 26 -17 17 34
-117 4 -32 12 35
-24 9 -39 -8 35
148 8 -97 6 36
-40 13 -145 -31 36
-85 6 -79 5 36
133 12 16 8 37
18 14 187 33 37
-131 8 55 -27 38
94 7 -18 -30 38
68 4 -60 -1 38
-156 14 -91 -19 39
-3 -1 -31 5 39
136 20 140 28 40
-98 9 165 13 40
-54 11 107 3 40
151 15 -14 -7 41
-48 2 -44 18 41
-122 -9 4 9 42
127 4 -53 6 42
32 6 -193 -39 42
-120 12 -119 -27 43
95 15 -55 -11 43
120 23 -97 -30 44
-126 8 -125 -3 44
-2 12 151 58 44
159 28 256 71 45
-79 18 180 19 45
-77 1 -12 -33 46
150 6 -34 -11 46
-11 4 -58 -17 46
-125 0 -105 -5 47
114 11 -22 14 47
59 13 -76 -24 48
-168 16 -121 -19 48
73 24 43 -2 48
139 30 261 83 49
-104 22 191 40 49
-8 13 9 30 49
164 19 -197 -22 50
-59 24 -105 4 50
-77 22 -126 -19 51
144 12 -22 56 51
0 8 62 26 52
-150 6 201 18 52
87 0 40 -34 52
77 0 2 2 53
-143 11 30 -1 53
38 16 -55 -10 54
131 14 -129 -10 54
-123 4 -161 -40 54
-47 7 75 29 55
141 4 -78 -36 55
-44 1 -150 8 56
-118 4 153 16 56
133 12 367 88 57
17 17 212 28 57
-133 3 -156 -34 57
105 11 -241 -45 58
83 14 12 49 58
-127 16 -120 -18 59
-13 1 -180 -18 59
149 16 50 -18 59
-93 8 394 69 60
-44 19 186 33 60
155 18 -104 -25 61
-26 16 -267 -24 61
-110 8 29 14 62
123 10 98 3 62
36 6 -66 -12 62
-130 10 -257 -19 63
73 6 -135 4 63
106 10 57 5 63
-118 3 -10 -45 64
-2 25 80 29 64
145 32 249 77 65
-60 31 126 53 65
-61 18 -31 28 65
162 24 -72 -7 66
-4 5 32 -11 66
-119 9 175 38 66
115 7 74 27 67
65 15 -222 -8 67
-156 -2 -145 -11 67
40 9 -37 -30 68
107 11 65 -12 68
-123 4 -56 -30 68
-15 -5 -224 -38 69
161 16 -70 -13 69
-57 20 106 -4 69
-94 6 50 -21 70
128 10 41 12 70
15 17 28 65 70
-132 -2 -115 -26 71
98 10 -102 -12 71
76 16 157 -12 71
-131 18 316 58 72
34 22 184 60 72
150 32 -161 -6 73
-99 22 -168 -12 73
-33 25 35 23 73
154 14 -129 9 74
-58 7 -231 -31 74
-108 -8 -91 -29 74
127 5 178 11 75
36 7 -17 -51 75
-154 -4 19 -3 75
79 0 -48 -29 76
112 18 -70 -21 76
-145 11 88 44 77
40 20 -12 22 77
142 9 170 61 77
-88 10 155 24 78
-68 18 -105 -42 78
157 4 -158 -6 78
-18 16 -84 -12 79
-148 -20 -85 -50 79
138 21 85 -38 80
35 22 281 111 80
-137 24 104 74 80
69 17 -145 13 81
111 9 -212 -21 81
-135 16 64 -24 81
0 15 134 46 82
171 17 14 1 82
-64 7 -387 -56 82
-66 9 -3 27 83
147 23 204 42 83
-10 7 155 35 83
-128 4 -71 -30 84
119 16 -116 18 84
65 28 87 37 84
-151 16 94 19 85
32 -5 -213 -83 85
145 1 -40 1 85
-126 14 224 46 86
-19 10 156 51 86
159 9 -36 -3 86
-59 1 -291 -78 87
-115 2 -59 -7 87
172 23 324 40 87
11 24 144 27 87
-121 15 -192 -31 88
72 0 -357 -30 88
123 16 65 20 88
-141 10 170 1 89
54 16 152 26 89
157 13 -256 -33 89
-107 13 -165 11 89
-62 25 391 88 90
171 12 40 -13 90
-48 6 -129 -14 90
-120 3 -56 -15 91
132 15 135 28 91
36 15 35 9 91
-145 1 -275 -58 91
81 -4 -110 -30 92
97 18 138 47 92
-135 22 48 41 92
11 7 -89 -18 92
142 -2 -204 -65 93
-100 14 114 26 93
-96 13 255 49 93
156 20 0 10 93
-2 11 -152 7 94
-114 -7 -50 -24 94
132 13 -88 8 94
49 35 288 74 94
-147 2 -112 -30 94
52 -9 -140 -50 95
113 19 132 55 95
-137 13 146 33 95
-22 15 117 49 95
151 3 -183 -55 96
-65 -1 -173 -68 96
-90 4 124 68 96
157 7 -285 -65 96
-9 5 -175 20 97
-162 7 238 -9 97
140 21 276 53 97
78 9 -105 -49 97
-157 -9 -296 -39 98
73 16 182 12 98
145 38 245 49 98
-115 11 -17 34 98
-26 1 -321 -36 99
165 11 57 -14 99
-75 26 290 22 99
-104 19 83 30 99
148 3 -427 -58 99
20 4 -58 1 100
-146 10 320 24 100
92 29 276 42 100
98 19 -18 -5 100
-131 -6 -508 -91 101
23 1 -23 -26 101
145 25 279 58 101
-110 19 176 68 101
-53 0 -322 -64 102
117 6 -208 36 102
-18 23 263 14 102
-113 22 236 54 102
172 22 -41 -13 103
64 -22 -378 -98 103
-151 17 -1 7 103
64 19 217 32 103
110 14 -15 -5 104
-135 3 -221 -25 104
-8 6 121 -3 104
149 20 113 34 104
-83 19 135 27 105
-78 12 -343 -75 105
162 15 -194 -7 105
-21 30 348 103 105
-123 15 171 52 105
136 11 -172 -32 106
64 -5 -219 10 106
-159 11 120 0 106
61 21 212 51 106
134 16 -64 -26 107
-122 -8 -427 -62 107
-23 5 225 46 107
154 17 174 17 107
-65 19 90 33 107
-97 -3 9 -8 108
157 10 18 23 108
9 8 40 -14 108
-128 -7 -350 -87 108
114 7 -192 -86 109
78 18 182 79 109
-153 20 217 52 109
22 -20 -448 -119 109
160 13 -260 -45 109
-121 19 413 90 110
-39 43 408 78 110
170 10 -39 -12 110
-60 -24 -599 -80 110
-111 4 -53 27 110
136 33 446 102 111
29 42 102 54 111
-150 -5 -290 -65 111
102 6 -34 -62 111
101 19 134 27 111
-147 -1 -46 -10 112
28 -9 -131 -26 112
141 26 117 56 112
-108 17 191 19 112
-43 18 -111 -13 113
151 -26 -465 -28 113
-38 27 299 27 113
-118 18 320 58 113
134 25 268 48 113
36 -42 -766 -188 114
-129 20 -47 29 114
64 12 284 77 114
120 38 347 101 114
-116 11 -320 -72 115
-17 -36 -520 -114 115
160 44 225 30 115
-95 33 440 101 115
-83 13 248 52 115
168 -8 -313 -65 116
-16 -22 -444 -91 116
-133 23 170 29 116
121 29 290 72 116
71 31 248 42 117
-147 6 -213 -55 117
27 -39 -591 -97 117
146 26 180 64 117
-127 -5 264 37 117
-25 26 236 36 118
158 -8 -422 -67 118
-58 1 -129 -46 118
-107 15 129 -11 118
157 33 318 66 118
17 -1 -415 -122 118
-144 -18 -524 -94 119
94 17 300 22 119
79 51 438 140 119
-147 15 50 0 119
46 2 -222 -10 119
144 22 56 0 119
-106 59 288 102 120
-44 22 21 -21 120
145 -29 -500 -121 120
-35 27 104 61 120
-109 26 3 10 120
123 3 -43 -53 120
52 19 -55 3 121
-153 9 87 2 121
112 44 192 85 121
97 -44 -420 -131 121
-129 -8 -56 -44 121
-10 32 242 57 121
169 63 303 102 122
-66 28 -166 -22 122
-89 -55 -542 -142 122
166 32 211 31 122
-25 30 207 4 122
-153 -60 -689 -229 122
194 33 -176 -49 122
32 34 383 75 123
-137 91 647 186 123
68 32 34 -24 123
90 -38 -725 -155 123
-121 31 143 3 123
-11 48 406 144 123
164 48 213 102 123
-68 12 -168 -12 123
-81 16 -214 -65 124
176 34 -92 -6 124
14 29 -32 -26 124
-132 14 -22 -27 124
115 39 80 12 124
70 31 -105 -6 124
-160 -50 -718 -184 124
73 49 211 72 124
127 55 270 85 124
-116 70 492 103 125
-7 22 -107 -34 125
161 18 -289 -80 125
-65 31 -19 7 125
-108 37 179 44 125
150 32 73 20 125
26 25 -165 -30 125
-140 13 93 12 125
98 2 -144 -36 125
81 -25 -340 -113 125
-129 46 200 66 125
23 30 173 48 125
150 42 308 85 125
-115 0 -32 -14 125
-48 4 -220 -45 125
170 9 -47 19 125
-33 18 60 27 125
-122 3 -43 -12 125
142 1 -34 5 125
24 -11 -119 -9 125
-142 2 -57 -8 125
72 -3 48 -19 125
130 24 147 47 125
-134 6 82 21 125
12 4 0 34 125
150 -4 -62 -5 125
-94 15 0 -32 125
-77 -9 -55 2 124
155 -10 59 7 124
-11 -11 -38 0 124
-135 -9 -68 5 124
129 -6 41 15 124
60 -12 37 4 124
-152 -22 10 -22 124
61 -21 -101 -19 124
126 -2 -71 29 124
-135 -2 100 1 123
-10 -31 -145 -79 123
170 34 145 84 123
-81 10 103 25 123
-79 29 140 56 123
125 -13 -12 -48 122
17 16 -118 -23 122
-141 6 -77 23 122
120 19 91 0 122
87 9 -22 1 122
-155 2 9 -19 122
43 18 -16 -5 121
143 14 -22 -7 121
-123 2 -48 -13 121
-46 1 -33 1 121
156 -4 -68 -1 121
-54 -4 -16 -3 120
-114 2 3 -5 120
141 1 -160 -37 120
40 23 17 46 120
-145 22 63 6 120
79 10 84 -14 119
78 2 -28 -70 119
-149 7 -56 -4 119
12 20 145 60 118
158 26 104 39 118
-98 21 32 32 118
-57 8 -84 -23 117
158 16 -25 -18 117
-32 15 21 12 117
-120 8 -42 -6 116
132 2 -55 -8 116
24 5 -55 -17 116
-162 8 -26 -11 115
73 1 -2 -6 115
123 8 -36 -23 115
-134 -1 -120 -39 114
-6 2 64 44 114
149 17 87 34 114
-81 15 142 26 113
-53 14 -58 -39 113
164 2 -61 -7 113
-21 -4 73 39 112
-134 -6 23 -1 112
118 6 -22 6 111
66 3 -58 -5 111
-150 -3 -68 -7 111
39 12 32 11 110
128 9 5 -4 110
-119 5 -22 -17 110
-17 -4 -41 5 109
158 8 -34 8 109
-74 11 11 18 108
-76 2 -33 -16 108
160 8 -27 -22 108
-4 0 -67 -11 107
-136 0 91 24 107
105 1 42 28 106
85 11 -22 14 106
-145 9 -89 15 105
27 -3 9 16 105
143 16 139 28 105
-109 3 85 1 104
-36 4 -11 -1 104
157 6 -103 -6 103
-64 8 -25 -6 103
-102 1 5 11 103
152 18 9 15 102
47 10 22 18 102
-149 4 -29 -11 102
94 5 -94 -22 101
93 11 -59 0 101
-145 3 54 18 100
35 12 36 16 100
158 15 43 14 100
-65 7 -61 -24 99
-62 1 -91 -4 99
138 9 49 7 98
-29 24 66 30 98
-125 5 29 8 98
136 9 -61 3 97
42 0 -82 -25 97
-151 -2 16 -16 97
55 8 38 -18 96
124 13 -2 14 96
-135 4 -26 16 96
7 9 -31 -6 95
161 15 -47 -6 95
-81 8 -110 -12 95
-81 13 -44 4 94
170 20 102 26 94
0 28 106 45 94
-119 10 96 16 94
114 8 5 -1 93
59 9 -11 -12 93
-149 8 -27 -7 93
58 12 -27 0 92
137 8 -39 7 92
-116 5 -49 -2 92
-28 4 -14 -16 91
154 11 15 2 91
-77 8 -28 -1 91
-80 7 -33 9 91
154 12 8 26 90
26 14 -32 4 90
-130 1 -185 -39 90
90 8 14 6 89
75 20 159 64 89
-152 12 179 42 89
19 11 5 -1 88
143 15 -87 -32 88
-104 2 31 7 88
-48 6 74 17 87
156 8 2 5 87
-46 10 -17 -6 87
-136 9 -29 -4 86
144 14 -36 1 86
40 14 -37 1 86
-116 13 -4 0 85
92 8 -18 0 85
108 11 -28 -2 85
-143 0 -38 5 84
-4 6 -9 12 84
155 12 -144 -56 84
-97 0 -184 -37 83
-72 12 110 27 83
152 18 171 91 83
-10 22 143 56 82
-115 8 -39 -1 82
132 15 -34 -28 81
58 15 186 44 81
-146 6 71 3 81
61 0 -52 -14 80
99 5 -37 -8 80
-126 8 -30 -9 80
2 10 -44 -7 79
165 11 -40 -6 79
-59 12 -22 3 79
-83 9 -31 6 79
148 17 -16 8 78
8 20 0 17 78
-133 6 -6 -2 78
103 7 -70 -3 77
63 6 -99 -10 77
-146 8 8 4 77
35 6 73 10 77
132 14 -17 -3 76
-116 32 -101 -40 76
-31 12 20 4 75
160 15 180 44 75
-48 32 156 44 75
-109 6 -2 16 74
151 13 -62 -8 74
32 17 0 7 74
-147 13 -13 18 73
108 16 -38 8 73
113 15 -5 13 73
-132 13 -5 -1 72
23 6 -19 -4 72
152 18 -11 0 72
-103 6 -17 -15 71
-55 11 -32 -16 71
156 8 -89 -17 70
-27 12 -39 12 70
-118 7 32 9 70
126 12 101 5 69
29 8 57 17 69
-152 5 -66 -25 68
72 10 -38 9 68
115 10 66 2 67
-127 14 160 23 67
-5 12 87 23 66
140 8 -17 -3 66
-79 5 -57 -18 65
-61 4 -42 -5 65
150 0 -79 -5 65
-9 0 -61 3 64
-130 -8 -19 7 64
115 0 31 6 63
73 13 -66 -13 63
-144 11 -110 -8 62
47 7 12 20 62
126 12 137 28 61
-104 14 19 -4 61
-23 2 -141 -39 61
141 6 -68 -5 60
-55 22 178 62 60
-80 15 202 49 59
158 20 38 10 59
19 11 -87 -7 58
-129 9 -56 0 58
85 10 16 9 57
81 12 11 -1 57
-130 6 -19 -11 57
28 10 -50 -17 56
139 15 -47 3 56
-101 19 -49 5 55
-41 12 -4 1 55
158 12 -46 -13 55
-49 10 -98 -7 54
-107 4 -41 -11 54
132 10 127 34 53
34 13 113 6 53
-133 0 -14 -28 53
60 9 -37 3 52
96 12 102 55 52
-133 8 103 34 51
18 5 -23 -4 51
159 11 -113 -12 51
-97 8 4 -2 50
-59 10 24 4 50
150 18 -8 -8 49
-16 17 -62 -6 49
-125 11 -103 -5 49
114 13 -36 14 49
43 12 0 7 48
-119 10 -31 -5 48
70 6 -71 1 48
123 12 -11 17 47
-115 13 84 11 47
-10 14 126 9 47
152 13 4 -10 46
-68 13 -153 -11 46
-78 7 -118 6 46
137 11 49 12 45
-5 8 166 13 45
-122 8 41 2 45
110 17 7 1 45
71 12 -1 17 44
-135 9 37 4 44
34 4 21 6 44
127 19 -40 4 43
-104 14 -4 4 43
-33 8 -16 -1 43
147 13 -35 -3 43
-32 16 -28 11 42
-87 12 -16 2 42
137 8 -17 5 42
24 18 -17 2 42
-133 20 -17 -7 42
93 12 -20 8 41
92 12 -22 10 41
-132 8 -51 -10 41
30 22 -4 -1 41
139 16 5 -1 41
-97 3 -53 -3 40
-53 11 -60 1 40
152 13 47 27 40
-32 6 90 -4 39
-114 4 73 6 39
134 8 31 0 39
35 12 4 -4 39
-126 5 42 15 38
69 4 49 10 38
100 6 25 18 38
-116 2 -3 0 38
1 4 -36 6 37
148 18 -37 2 37
-85 10 -28 -1 37
-72 10 -26 10 37
138 9 -40 3 37
-10 12 -20 7 36
-133 7 -25 -11 36
100 4 -53 -13 36
79 28 -31 11 36
-135 9 -34 -2 36
57 14 42 8 35
112 17 56 17 35
-104 21 -17 -2 35
-32 -2 -128 -18 35
160 32 -31 23 35
-53 14 76 22 34
-91 3 141 2 34
131 6 69 -14 34
2 13 4 -9 34
-137 0 -20 -10 34
97 17 -11 6 33
75 32 -32 1 33
-128 14 -36 1 33
30 9 -24 -17 33
130 20 -23 5 33
-91 16 -10 -2 32
-39 5 -21 2 32
141 15 -15 3 32
-46 10 -26 3 32
-85 23 -16 17 32
133 20 -9 13 31
24 13 -26 4 31
-142 -8 -41 -14 31
68 2 -62 -4 31
113 31 -19 14 31
-121 6 64 6 30
15 6 106 0 30
108 -2 67 -24 30
-93 0 -5 -14 30
-60 13 -75 -1 29
153 17 16 18 29
-14 12 27 8 29
-108 11 27 -5 29
114 9 6 4 28
42 10 -36 0 28
-141 0 -53 -15 28
42 -1 -56 -16 28
111 23 -55 17 27
-113 12 16 19 27
4 10 56 13 27
146 25 53 15 27
-62 20 19 1 26
-88 2 -37 -2 26
181 33 5 33 26
-1 13 2 6 26
-108 15 -2 7 26
101 12 -36 -4 25
43 -10 -72 -23 25
-122 23 -58 5 25
46 16 -18 -5 25
116 12 17 1 24
-100 17 -29 4 24
-31 4 -3 13 24
144 19 80 5 24
-39 18 102 5 24
-90 7 94 -3 23
145 16 39 13 23
20 12 0 10 23
-110 21 -1 8 23
107 28 -20 12 23
94 20 -23 12 22
-129 5 -34 5 22
29 9 -25 5 22
118 -2 -39 0 22
-82 17 -13 8 22
-52 16 -15 -7 22
135 0 -14 -19 22
-25 31 3 5 22
-97 5 -1 -2 22
123 8 -20 -19 22
41 22 30 32 21
-128 4 -9 -7 21
69 28 11 25 21
95 6 -29 -33 21
-121 5 -5 -1 21
-1 11 -10 11 21
151 18 16 46 21
-73 9 -26 -4 21
-61 10 -3 12 21
143 12 -2 12 21
-20 8 0 15 21
-109 14 -4 -6 21
119 16 15 19 21
55 24 11 14 20
-113 8 2 6 20
64 22 -6 2 20
94 -2 -17 -7 20
-106 16 -4 2 20
-11 10 -3 10 20
143 9 -2 7 20
-68 4 -8 -3 20
-80 2 -14 -8 20
111 -20 -25 -22 20
-6 -4 -14 -5 19
-118 6 -3 -11 19
105 17 8 3 19
74 17 -9 10 19
-124 20 -8 4 19
26 9 -12 -10 19
118 11 0 0 19
-99 14 -12 2 19
-52 -7 -25 -9 18
126 4 -16 -6 18
-35 18 2 4 18
-129 -17 -25 -22 18
155 27 13 16 18
23 8 -3 0 18
-123 17 4 9 18
83 8 2 1 17
70 -6 -11 -7 17
-144 7 0 0 17
14 5 -6 1 17
132 10 -2 2 17
-113 -3 -11 -8 17
-44 4 0 8 17
136 8 -12 -4 17
-28 13 -3 6 17
-116 -5 -3 7 17
117 8 -19 -3 17
40 14 16 23 16
-129 2 -23 -7 16
42 -16 -24 -12 16
98 8 -10 5 16
-121 10 5 1 16
-6 2 -9 -8 16
112 -7 -16 -10 16
-71 19 5 13 16
-70 11 -7 -1 16
157 23 8 15 16
-1 11 3 4 16
-114 9 -1 3 16
107 12 -7 1 16
46 -3 -17 -4 16
-135 13 -5 2 16
40 13 -8 1 15
122 24 4 10 15
-110 3 -13 -7 15
-13 15 -1 -10 15
135 10 21 28 15
-54 13 1 1 15
-70 13 -1 18 15
149 24 4 14 15
-7 2 0 -14 15
-121 12 -28 -1 15
85 8 -5 20 15
89 21 -28 -10 15
-124 8 3 22 15
15 11 -11 -5 15
120 5 -1 -2 15
-92 15 -6 -6 14
-70 -10 -21 -24 14
160 15 9 10 14
-34 13 -2 -2 14
-107 6 -12 -6 14
115 0 2 14 14
15 -10 -22 -8 14
-139 -1 -15 -8 13
79 10 -4 -10 13
100 11 7 11 13
-143 0 -23 -42 13
19 13 41 57 13
132 0 -41 -83 13
-67 26 63 49 12
-63 5 36 -9 12
158 30 24 36 12
-4 9 -54 30 12
-93 31 4 57 12
130 21 -35 31 11
54 17 25 25 11
-131 14 17 28 11
78 21 12 17 11
125 26 24 14 10
-124 8 12 3 10
-18 0 -7 -16 9
155 13 -4 -11 9
-76 5 -9 -13 9
-103 -12 -33 -29 8
157 8 -6 -3 8
-15 6 0 -4 7
-123 8 -4 1 7
116 4 -6 0 6
66 12 -6 11 6
-122 25 8 16 6
38 3 5 -10 5
113 -3 -19 -17 5
-116 -1 -22 -18 5
-34 -6 -18 -8 4
158 5 -3 5 4
-68 -11 -19 -29 4
-90 11 -6 12 4
122 0 0 6 4
51 39 40 30 4
-90 41 7 0 4
137 64 48 47 4
137 60 36 64 4
-96 34 16 13 4
38 22 9 -9 4
134 10 -11 20 4
-122 -18 -36 -5 4
-73 -32 -48 -21 4
106 -43 -75 -66 4
-52 -12 -36 -24 4
-135 -18 -39 -31 4
104 -17 -41 -25 4
13 -3 -8 -23 4
-127 22 -7 2 4
67 4 -18 -7 4
100 13 -8 -1 4
-142 0 -15 -8 4
-11 -9 -19 -18 4
135 8 -7 -2 4
-84 10 -14 -7 4
-65 4 -9 -8 4
118 -17 -8 -15 4
-16 15 9 21 4
-121 6 -22 -9 4
113 0 -6 -1 4
68 6 28 1 4
-144 4 -40 -39 4
50 4 -7 -17 4
135 28 6 51 4
-119 20 7 24 4
-9 18 1 2 4
168 26 -7 15 4
-63 9 5 24 4
-74 32 12 18 4
160 22 6 13 3
13 12 3 -1 3
-136 -5 -23 -15 3
111 7 -59 0 3
80 19 -50 -2 3
-126 21 -52 19 3
44 13 8 29 3
129 9 89 20 3
-117 5 111 -5 3
-33 6 75 -12 3
128 3 -23 -16 3
-53 13 -57 8 3
-113 3 -56 -14 3
128 4 -50 -17 3
22 9 -16 14 3
-127 18 10 24 3
88 4 -3 -5 3
90 7 -90 -17 3
-125 22 -67 3 4
20 14 18 26 4
148 32 93 11 4
-75 17 88 4 4
-54 12 34 -3 4
160 18 15 5 4
-12 15 64 22 4
-119 1 0 -14 4
132 15 -38 -9 4
49 6 -76 -17 4
-129 14 -27 9 5
43 5 17 26 5
116 20 -63 4 5
-119 14 -150 1 5
2 18 -51 17 6
149 19 121 39 6
-70 21 161 16 6
-71 14 3 -19 7
152 9 -70 -27 7
-6 10 13 5 7
-132 -4 101 9 8
106 9 85 34 8
55 4 -75 -19 9
-122 22 -118 -6 9
64 32 -108 7 9
140 31 85 32 10
-95 22 140 30 10
-5 28 48 -5 11
191 44 -117 15 11
-25 42 -139 38 12
-65 33 -23 21 12
161 24 -62 -5 12
8 9 -114 -55 13
-143 4 -133 -9 13
70 -11 220 46 14
35 -25 336 47 14
-189 -40 213 -22 15
-32 -46 -2 -58 15
88 -29 -127 -59 16
-124 -13 -91 -30 16
-47 3 -96 -21 17
158 13 -127 -18 17
-23 21 -47 13 18
-89 21 -118 3 18
144 21 -208 -19 19
43 20 -163 12 20
-129 4 69 16 20
74 1 275 43 21
96 10 154 -15 21
-130 12 -49 2 22
5 6 -121 -6 22
133 12 -33 26 23
-85 1 47 28 24
-66 12 84 14 24
143 22 19 13 25
1 27 -108 -8 25
-112 7 -129 13 26
134 23 32 27 26
70 20 197 32 27
-126 19 117 5 27
32 1 -148 -38 28
121 5 -214 -20 28
-105 7 -24 6 29
0 2 125 25 29
175 6 27 13 30
-63 -3 -218 -73 30
-104 -11 -193 -43 31
125 -3 118 8 31
-14 1 374 83 32
-141 15 175 39 32
87 16 -68 -5 33
66 14 -106 3 33
-118 9 -15 -16 34
33 17 54 15 34
128 25 -68 -7 35
-84 22 -114 7 35
-29 26 -145 -20 36
154 23 -85 1 36
-37 10 41 7 37
-93 11 112 25 37
111 16 88 27 38
10 10 22 10 38
-126 5 -23 -11 39
81 -3 -3 -14 39
84 20 16 8 40
-120 16 78 19 40
7 32 -23 -3 41
136 19 -127 -19 41
-97 -3 -78 -25 42
-61 10 23 -28 42
138 14 41 6 43
-41 3 -81 -34 44
-127 2 -70 13 44
106 9 118 6 45
45 16 181 48 45
-135 14 57 30 46
81 5 -80 5 46
114 25 -78 -10 47
-122 15 -57 -20 47
14 16 -57 -20 48
155 32 -5 21 48
-84 7 109 7 49
-81 7 71 14 49
145 9 -49 -30 50
-9 14 -164 -55 50
-128 10 -29 -15 51
103 13 106 61 51
56 14 -122 -26 52
-141 -1 -134 -19 52
51 8 -12 -41 53
130 20 171 47 53
-138 28 66 53 54
-24 7 -14 19 54
176 25 38 41 55
-50 10 45 -10 55
-84 8 41 -3 56
148 14 61 17 56
0 16 38 13 57
-122 3 -129 -20 57
101 16 -194 2 58
71 9 -11 16 58
-157 3 -106 -64 59
44 -9 -172 -84 59
134 11 -85 -37 60
-106 7 276 76 60
-43 23 242 113 60
163 14 -55 23 61
-27 23 -197 -15 61
-101 16 -16 6 62
141 22 246 43 62
35 22 66 26 63
-139 2 -123 -29 63
88 1 -124 0 64
94 5 144 25 64
-149 6 110 -5 65
0 -8 -133 -63 65
129 -3 -338 -73 65
-89 14 -36 10 66
-78 16 161 73 66
158 9 -8 7 67
-20 -4 -191 -63 67
-131 9 56 -2 68
133 15 258 59 68
44 27 151 33 68
-147 15 -160 -10 69
65 2 -149 -23 69
119 3 18 13 70
-133 15 139 47 70
-13 6 -83 -36 70
137 6 -100 -11 71
-74 19 -8 1 71
-53 15 93 6 72
149 17 77 33 72
18 15 2 20 72
-122 -5 -226 -86 73
95 3 -104 -1 73
79 21 196 2 74
-119 15 213 63 74
56 17 -10 21 74
131 13 -201 -10 75
-117 7 -266 -60 75
-28 -2 77 55 75
150 13 192 -14 76
-49 19 246 42 76
-87 15 -101 -33 76
129 16 -153 -1 77
18 8 15 28 77
-134 6 106 15 77
67 21 179 18 78
114 12 -154 -34 78
-134 8 -267 -29 78
40 5 107 26 79
138 26 125 49 79
-94 7 61 8 79
-36 1 -251 -67 80
156 15 -147 -18 80
-44 26 267 66 80
-115 16 98 24 80
113 2 -111 27 81
36 9 -54 -31 81
-141 6 220 74 81
80 4 29 -14 82
109 -1 -261 -15 82
-137 0 -123 -50 82
-7 9 180 40 82
140 26 201 27 83
-69 6 -160 -47 83
-76 -4 -370 -56 83
163 -4 55 -5 84
-14 16 197 11 84
-120 21 302 90 84
138 23 19 15 84
74 20 -270 -47 85
-136 -5 -157 2 85
60 8 205 11 85
126 24 97 25 86
-130 8 -126 -18 86
-37 -6 -221 -14 86
153 10 69 -36 86
-73 6 174 11 87
-89 11 110 5 87
151 6 -247 -43 87
11 21 -65 17 87
-134 19 150 31 88
116 31 159 60 88
86 15 -203 -55 88
-175 0 -372 -28 88
75 2 189 13 89
135 29 164 47 89
-89 24 236 59 89
-32 2 -221 -52 89
146 17 -84 40 89
-61 23 246 39 90
-103 13 166 34 90
143 8 35 3 90
-1 24 -302 -42 91
-190 -9 -118 -2 91
149 0 -13 11 91
101 10 180 -1 91
-111 20 69 7 91
34 16 -175 -18 92
99 2 -201 3 92
-96 8 40 -13 92
-51 2 157 48 92
170 24 174 5 93
-42 8 -280 -65 93
-139 -13 -396 -19 93
131 22 263 37 93
68 30 368 70 93
-130 50 345 102 94
92 14 -126 5 94
106 4 -294 -36 94
-140 4 -43 -13 94
1 2 135 6 94
163 9 1 3 94
-75 7 -47 -39 95
-88 3 -178 2 95
144 12 -24 -7 95
-6 5 45 24 95
-132 2 76 -1 95
121 6 -48 -7 96
57 4 -250 -49 96
-169 1 -136 -13 96
72 16 213 16 96
113 20 141 35 96
-115 11 41 1 96
-9 0 -246 -41 96
152 2 -115 -39 96
-88 24 144 43 97
-85 19 257 57 97
154 21 82 40 97
20 22 -109 -11 97
-128 1 -281 -66 97
97 9 -57 13 97
80 22 230 18 97
-148 10 188 13 97
32 12 12 13 97
144 8 -175 -2 97
-127 -7 -152 -19 97
-34 1 -102 -51 97
153 15 51 28 97
-41 23 71 17 97
-83 -5 -144 -36 97
147 7 -402 -6 97
14 18 301 33 97
-145 22 290 27 97
81 27 285 31 97
102 9 -211 -17 98
-151 4 -161 -3 98
16 10 104 40 98
150 21 111 15 98
-91 16 -48 -14 98
-62 3 -169 -23 98
162 10 -22 -21 98
-34 4 2 12 98
-127 0 53 -14 98
156 14 -193 -40 98
24 6 -304 11 98
-148 7 200 -22 98
60 6 103 -21 98
151 28 212 0 98
-138 5 -196 -31 98
5 18 -5 39 98
168 10 89 30 98
-91 12 10 4 99
-89 5 -44 -12 99
173 4 -188 -30 99
-17 -8 -142 1 99
-152 13 125 -30 99
125 19 79 36 99
73 27 179 9 99
-162 -12 -301 -109 99
42 8 -183 -33 99
130 17 238 76 99
-113 28 166 68 99
-16 15 -92 9 99
134 -14 -231 -5 99
-64 30 198 5 99
-78 17 162 34 99
177 33 151 4 99
54 32 -102 0 100
-142 8 -235 2 100
91 23 -11 1 100
92 15 57 14 100
-132 10 30 -16 100
27 7 -119 -36 100
127 -3 -194 -31 100
-125 5 19 -36 100
-49 1 6 19 101
140 -2 12 27 101
-67 -7 -111 36 101
-120 12 287 -44 101
138 22 185 56 101
49 23 118 11 101
-140 0 -215 -17 101
84 -2 -151 -16 102
111 6 -57 -12 102
-148 10 78 18 102
9 12 35 31 102
156 10 -44 -5 102
-84 7 -254 -23 102
-87 2 134 -19 102
159 25 120 41 103
-10 18 97 -13 103
-134 -7 -284 -45 103
106 8 -48 10 103
98 28 224 36 103
-156 27 239 65 104
88 20 -64 4 104
153 6 -294 -29 104
-145 2 -85 -15 104
-27 17 153 32 104
166 14 112 19 105
-72 25 67 12 105
-93 8 -179 -34 105
158 16 -321 0 105
3 18 14 13 105
-150 18 148 -31 106
117 31 234 60 106
84 8 -83 -35 106
-167 -10 -159 69 106
35 6 125 1 106
154 28 183 14 107
-131 12 129 10 107
-31 6 -184 -42 107
171 -8 -306 -49 107
-48 21 98 41 107
-110 4 114 -13 107
158 22 214 67 108
25 12 -66 -16 108
-151 -3 -360 -29 108
109 10 103 24 108
102 21 47 -39 108
-159 14 125 8 109
28 7 -164 -28 109
157 -6 -374 -30 109
-107 7 180 -13 109
-58 23 188 43 109
175 30 176 50 110
-35 14 23 53 110
-129 -14 -326 -44 110
141 2 -59 29 110
41 26 151 -20 110
-155 13 93 6 110
72 8 95 5 110
123 -3 -318 -44 111
-138 11 -149 -7 111
-1 22 229 0 111
173 31 259 50 111
-78 25 -11 -26 111
-93 -9 -336 -20 112
159 15 79 8 112
-22 11 48 5 112
-149 15 159 30 112
139 28 -131 -42 112
71 2 -158 -24 112
-161 5 4 31 113
54 14 109 28 113
133 18 131 48 113
-128 17 -1 7 113
-22 -11 -430 -101 113
168 0 -2 13 113
-75 25 230 57 114
-106 14 247 21 114
172 32 11 0 114
13 -14 -320 -52 114
-149 -4 19 32 114
111 30 225 40 114
87 25 14 48 115
-145 16 34 -19 115
41 -7 -313 -52 115
144 -8 -24 46 115
-123 20 159 49 115
-32 10 160 -11 115
174 18 82 -3 116
-46 -22 -462 -128 116
-106 9 -126 4 116
140 15 232 76 116
32 37 292 74 116
-168 24 33 16 116
101 -11 -256 -50 117
109 10 -63 14 117
-149 10 201 27 117
16 8 22 -17 117
165 16 17 -16 117
-121 10 -249 -19 117
-67 -24 -298 -52 118
163 12 233 49 118
-46 21 140 10 118
-117 24 148 16 118
145 14 -159 15 118
52 7 -54 -25 118
-156 13 74 39 118
68 0 -293 -102 118
134 -13 -244 2 118
-131 46 363 49 119
0 39 356 59 119
191 15 -52 -86 119
-94 7 -203 -6 119
-84 16 95 125 119
164 29 215 113 119
-9 0 -84 -1 119
-158 -36 -298 -84 119
116 10 170 52 120
62 23 130 34 120
-165 11 6 12 120
43 -20 -232 -65 120
133 8 -129 -11 120
-138 13 143 14 120
-32 12 46 -4 120
166 -20 -63 -16 120
-52 4 -256 -64 121
-97 -14 -240 -118 121
136 24 122 52 121
20 49 384 111 121
-151 17 59 46 121
95 3 -134 -64 121
98 12 13 44 121
-169 -4 72 59 121
27 36 214 65 121
156 21 -22 -37 122
-112 11 -185 -26 122
-58 16 17 22 122
174 21 7 -1 122
-64 1 -67 -46 122
-101 19 -42 23 122
152 37 -20 11 122
45 24 -47 11 122
-154 7 13 -19 122
77 10 -57 -15 122
111 5 24 2 123
-131 19 -60 -9 123
0 -2 -45 10 123
158 22 97 21 123
-107 -12 30 -19 123
-80 8 37 -7 123
175 24 -60 -9 123
-17 9 -82 28 123
-142 11 77 -10 123
142 17 57 15 123
70 32 27 20 123
-147 11 12 1 123
74 3 -14 16 122
138 12 40 15 122
-142 6 2 5 122
-17 0 -2 -10 122
167 -2 -44 -23 122
-85 5 -9 5 122
-92 0 -3 19 122
162 10 0 16 122
-2 18 14 1 122
-148 12 -53 -16 122
120 0 -47 4 121
84 -3 35 -15 121
-172 11 -2 7 121
48 3 -99 -21 121
154 9 -43 40 120
-129 18 94 -9 120
-44 -2 84 17 120
171 14 73 3 120
-56 3 -28 -9 119
-120 -11 -41 8 119
152 17 -14 2 119
16 14 -10 4 118
-161 -6 -35 -27 118
94 21 11 -9 117
94 17 2 -11 117
-155 23 -24 16 117
22 14 -49 -2 116
153 14 -31 0 116
-115 15 -31 -25 115
-69 10 32 -2 115
170 19 -8 4 115
-37 21 69 17 114
-135 9 -2 -12 114
143 9 16 -1 113
45 4 -14 -1 113
-154 7 -49 -1 112
81 10 -54 -2 112
119 12 31 -3 111
-140 4 58 4 110
-6 3 -23 -3 110
175 -3 -83 2 109
-83 8 -101 -18 109
-83 7 63 -17 108
171 21 143 53 108
-1 18 68 26 107
-137 4 6 -11 107
137 11 -25 14 106
74 6 -35 0 105
-156 1 6 20 105
62 -1 -33 5 104
140 20 0 16 104
-137 8 1 1 103
-14 12 -16 12 103
177 5 -23 -6 102
-89 0 -88 -6 102
-105 -5 -82 -7 101
160 0 -11 4 101
38 -4 75 16 100
-137 -11 92 8 99
120 -4 10 2 99
74 7 -26 4 98
-192 -6 -12 -10 98
31 -3 13 -12 97
150 13 24 23 97
-136 7 1 8 96
-50 10 -22 -4 95
185 16 -22 2 95
-44 23 -8 3 94
-116 15 -17 -7 94
176 13 -27 9 93
45 20 -41 -6 93
-161 4 -54 11 92
91 15 24 16 92
116 11 -29 -11 91
-146 13 -64 -33 91
22 6 -40 -18 91
156 9 4 44 90
-117 5 150 35 90
-84 2 86 29 89
164 -2 18 -16 89
-28 4 -17 -25 88
-139 -3 -28 -5 88
141 3 -23 -4 87
50 5 -16 -5 87
-170 4 -65 -16 86
64 -3 -67 3 86
112 7 -4 20 86
-125 1 27 -5 85
7 7 -22 -18 85
176 4 -70 0 84
-67 2 -31 5 84
-86 9 74 9 84
168 11 -32 -17 83
-2 16 -1 15 83
-132 11 -48 2 83
116 11 62 33 82
72 10 45 -6 82
-151 15 -8 -8 81
60 11 2 -12 81
141 18 38 17 81
-131 15 7 25 80
-25 18 22 29 80
162 19 23 21 79
-62 14 12 6 79
-92 0 -26 -32 79
150 9 -48 -7 78
9 9 2 32 78
-134 7 -11 1 77
100 8 -33 -12 77
101 14 -64 -17 77
-142 7 -100 1 76
12 4 -7 1 76
150 13 102 25 75
-104 14 53 -13 75
-36 1 -14 -8 75
165 8 -57 -1 74
-45 19 93 34 74
-109 8 72 9 73
143 12 -4 3 73
48 16 -58 -30 72
-148 15 6 26 72
87 4 45 12 71
110 3 1 18 71
-136 3 -20 -6 70
6 -4 -94 -37 70
163 8 -72 9 70
-87 7 -13 18 69
-79 3 57 47 69
160 16 103 13 68
-16 18 -1 -16 68
-122 12 -85 -33 67
124 14 -68 -20 67
50 31 38 2 66
-144 13 109 21 65
62 16 78 0 65
103 15 -79 -14 64
-123 14 -68 -18 64
16 22 19 39 63
194 11 60 34 63
-42 13 46 20 62
-91 5 -12 -6 62
143 30 -60 -18 61
-4 8 -53 7 61
-129 9 -59 -36 60
93 10 45 18 60
77 6 0 -8 60
-133 -3 -103 -29 59
32 -14 -107 -9 58
126 -5 -21 -17 58
-130 4 157 51 57
-45 10 157 31 57
153 11 70 44 57
-54 13 -52 -8 56
-106 7 -110 -1 55
144 16 -47 -7 55
14 4 7 -9 54
-135 5 103 2 54
85 13 64 -9 54
109 20 -6 -6 53
-135 15 -44 -7 53
12 22 -54 5 52
146 14 -71 18 52
-78 20 -42 15 52
-30 23 -88 -4 51
171 16 -158 -48 51
-25 18 -126 0 50
-119 8 148 43 50
125 22 301 85 49
47 16 201 22 49
-145 6 37 -16 49
59 1 -72 -22 48
99 4 -49 -22 48
-134 -1 -45 -23 47
-14 6 -78 -21 47
140 7 -30 -6 47
-82 9 -20 -22 46
-81 4 -67 -30 46
124 -2 -132 7 46
-16 1 -5 19 45
-125 -8 19 13 45
105 5 31 -2 45
66 15 -30 -12 45
-131 14 -51 5 44
50 12 2 17 44
119 12 84 -12 44
-102 10 61 0 43
-23 13 32 10 43
152 21 -7 13 43
-43 27 -28 13 42
-68 30 -19 10 42
146 32 -169 -22 42
18 20 -162 8 41
-126 13 -40 -10 41
82 11 227 45 41
78 13 257 25 40
-122 15 94 -16 40
24 9 -56 -12 40
121 14 -103 1 39
-95 2 -49 9 39
-47 2 -19 -14 39
149 9 18 4 38
-29 9 4 -17 38
-98 5 -79 -14 38
126 12 -91 24 37
52 30 10 34 37
-129 17 47 26 37
90 21 26 13 37
111 25 -7 0 36
-104 24 -52 25 36
30 41 7 31 36
169 45 100 42 35
-58 39 95 34 35
-60 32 44 -5 35
143 13 -24 -13 35
-18 13 -115 -6 34
-134 -11 -57 -21 34
92 -5 16 -2 34
17 -19 54 -27 33
-163 -23 -5 -40 33
13 -34 -108 -60 33
78 -21 -91 -35 32
-150 -22 -25 -17 32
-30 -9 -9 2 32
152 10 17 13 31
-79 1 -15 -8 31
-89 1 -45 -1 31
136 8 -59 -10 30
2 6 -51 12 30
-115 6 44 8 30
101 6 68 9 29
49 -7 39 -14 29
-111 22 27 8 29
36 11 -39 -1 28
127 7 -20 5 28
-100 4 -16 3 28
-17 30 -8 13 27
165 30 -9 27 27
-42 35 -9 39 27
-79 23 -13 16 26
160 18 44 12 26
38 25 40 -9 26
-107 24 29 8 25
93 18 -1 9 25
96 21 -23 12 25
-138 9 -18 -22 24
35 19 -33 -9 24
130 24 -89 5 24
-88 10 -69 11 23
-54 -4 10 17 23
127 -5 82 -13 22
-16 30 89 5 22
-105 11 2 -13 22
135 16 -32 17 21
49 22 23 26 21
-114 34 55 9 21
66 20 17 1 20
108 21 2 27 20
-123 1 -24 0 20
-7 14 3 15 20
143 11 -8 6 19
-79 8 -11 8 19
-76 -4 -25 1 19
116 -15 -34 -13 18
-28 9 -14 -3 18
-116 -12 -23 -14 18
98 -32 -32 -32 18
65 6 -12 -8 17
-118 12 -13 1 17
26 2 -12 8 17
82 -5 -17 -17 17
-116 3 -10 -9 17
-19 19 8 1 16
142 26 6 15 16
-44 23 1 5 16
-81 17 9 8 16
124 14 9 8 16
4 13 -13 3 15
-111 14 -7 8 15
87 12 -11 14 15
79 23 6 11 15
-118 8 -3 -18 15
9 0 -11 -10 15
122 14 -3 28 15
-83 28 3 21 14
-39 8 -1 21 14
148 13 -5 -14 14
-29 20 10 -7 14
-104 4 -12 -1 14
132 13 11 23 14
43 18 -8 19 14
-124 5 -17 -10 14
76 14 14 19 13
73 -3 -19 -21 13
-112 7 -1 15 13
-6 -4 -5 -1 13
129 4 -17 -13 13
-81 4 -1 -4 13
-69 3 -2 -7 13
121 -7 -21 -24 13
-36 -14 -10 8 13
-97 16 -7 2 13
126 9 -6 1 13
52 26 -2 20 13
-124 9 -39 -31 13
56 13 14 46 12
113 26 10 18 12
-111 17 -7 21 12
-12 5 -16 -20 12
139 17 1 14 12
-85 4 0 1 12
-78 0 -16 -19 12
146 17 6 2 12
-3 13 2 5 12
-128 5 -11 -13 12
104 17 -29 -12 12
58 13 -16 4 12
-119 12 -11 -8 12
42 0 -40 -37 12
135 25 22 40 11
-116 0 -3 -10 11
-29 4 -11 -1 11
154 25 14 7 11
-54 11 -17 27 11
-111 1 -30 -18 11
129 9 -19 -10 10
22 26 10 6 10
-134 5 -16 -39 10
111 27 20 56 10
73 5 -35 -19 10
-140 -1 -14 1 9
21 0 -19 -14 9
128 2 -10 2 9
-80 8 9 34 9
-46 -1 -13 4 9
146 7 -6 3 8
-63 -10 -13 -16 8
-94 12 8 5 8
123 5 9 6 8
46 18 20 4 8
-111 23 -6 -9 7
73 18 5 5 7
86 17 -29 -15 7
-93 36 34 23 7
13 11 -9 4 7
136 24 2 19 7
-73 12 -13 0 7
-61 9 24 51 6
129 21 20 28 6
-13 8 -6 -7 6
-120 5 -8 10 6
121 20 -4 31 6
36 -8 -12 3 6
-130 13 -1 4 6
56 7 0 -5 5
136 39 24 26 5
-109 12 -5 -10 5
-12 31 -13 -32 5
160 36 49 36 5
-77 4 -7 0 5
-84 0 -3 -3 5
131 2 -18 -5 4
-4 8 22 31 4
-122 6 -12 15 4
92 8 -7 8 4
80 20 -5 -16 4
-140 1 -17 -9 4
41 4 -21 1 4
116 2 -15 0 4
-90 14 -12 -7 4
-48 9 20 9 4
170 41 10 -1 4
-36 32 -13 63 3
-75 26 -11 19 3
127 15 -34 -21 3
33 16 -1 -1 3
-141 5 2 -16 3
85 12 -6 31 3
82 1 -18 6 3
-135 1 -1 -7 3
25 13 1 2 3
132 23 0 4 2
-80 26 -4 -5 2
-52 8 18 23 2
168 33 -16 -3 2
-8 16 -4 17 2
-94 18 33 26 2
115 2 -31 -34 2
41 10 27 40 2
-132 15 22 22 1
108 54 -18 -42 1
110 25 5 23 1
-99 50 4 13 1
-10 0 -38 -10 1
140 -1 -17 -18 1
-74 15 45 77 1
-81 14 -2 22 1
155 4 -10 37 1
-16 2 -6 -3 1
-149 -16 -17 -17 1
102 1 0 0 1
78 17 15 2 0
-147 -3 3 -12 0
49 14 -3 -10 0
125 7 1 -4 0
-108 12 4 -4 0
-21 15 5 -7 0
162 17 2 9 0
-49 15 -6 10 0
-92 8 -8 5 0
149 12 3 1 0
27 24 13 4 0
-150 -11 -27 -2 0
125 35 8 18 0
69 -1 -25 -13 0
-120 26 29 12 0
24 2 -2 -6 0
134 16 -15 1 0
-106 7 -10 2 0
-45 28 -14 -4 0
148 10 -21 -1 0
-40 14 -28 8 0
-103 11 -75 -6 0
133 15 -65 -1 0
35 14 -34 14 0
-135 4 -9 17 0
73 2 42 -1 0
100 12 40 1 0
-118 14 -8 -2 0
12 13 -119 -8 0
142 18 -105 18 0
-82 13 -77 -11 1
-58 5 144 13 1
142 10 250 12 1
-15 8 215 9 1
-128 2 123 5 1
108 10 53 23 1
40 5 11 -1 2
-136 5 -21 0 2
66 11 -64 -10 2
104 15 -68 -2 3
-110 11 -69 -9 3
-9 8 -73 -9 3
150 17 -75 -1 4
-50 18 -78 -1 4
-69 25 -150 -18 5
149 15 -170 -19 5
-11 18 -174 -9 5
-113 15 61 10 6
98 4 225 54 6
79 14 224 15 7
-137 4 141 13 7
23 2 71 24 8
117 10 46 3 8
-97 12 8 0 9
-33 7 -52 -5 9
158 19 -95 -9 10
-50 7 -120 -24 10
-97 8 -143 -8 11
121 1 -67 -2 11
27 16 16 -3 12
-137 8 -87 -41 12
86 16 -130 -27 13
82 9 -32 -14 14
-149 -2 177 21 14
5 1 202 40 15
130 8 103 1 15
-91 11 -27 2 16
-63 9 20 9 16
149 27 43 28 17
-6 27 -30 18 17
-97 11 -39 -2 18
125 4 -49 0 18
25 1 -59 -10 19
-131 1 -116 -24 19
68 -11 -138 -32 20
99 -6 -121 -16 20
-124 2 46 7 21
-21 2 122 49 21
130 10 88 18 22
-72 8 -32 -4 22
-66 6 -43 -33 23
141 13 2 2 24
2 25 98 40 24
-107 28 74 33 25
121 24 -53 -3 25
70 16 -118 -37 26
-128 12 -150 -34 26
52 24 120 52 27
113 17 156 33 27
-109 18 20 0 28
-23 24 -54 -19 28
151 13 -1 17 29
-54 10 17 12 29
-106 -7 -39 10 30
129 16 -93 -12 30
22 13 -9 -2 31
-131 13 44 1 31
96 7 -6 1 32
91 10 -32 21 32
-130 9 0 36 33
29 -4 -58 -5 33
134 -55 -81 -22 33
-127 -23 -17 -10 34
-44 4 -35 -29 34
142 47 42 24 35
-32 53 34 27 35
-97 24 53 1 36
123 26 36 9 36
13 27 -27 -11 36
-132 9 -42 -15 37
79 4 -120 -26 37
97 21 -201 -1 38
-124 8 14 2 38
7 1 166 30 39
136 14 171 17 39
-91 15 74 -13 40
-56 18 49 2 40
159 26 85 42 40
-8 37 -89 25 41
-108 33 -130 29 41
128 18 -71 -8 42
54 11 121 17 42
-149 -7 92 -29 42
44 -4 -61 -22 43
112 0 -175 -33 43
-153 -9 -151 -15 44
7 -15 -197 -105 44
141 -2 38 49 45
-77 -2 166 38 45
-87 5 164 69 45
140 26 4 19 46
-6 25 -71 8 46
-132 8 22 1 47
107 12 171 27 47
77 30 -17 -8 48
-121 30 -195 -20 48
67 24 -124 -4 48
152 25 94 55 49
-104 28 123 12 49
-45 14 41 3 50
155 17 -55 -27 50
-67 -4 -86 -15 50
-87 -17 -126 -51 51
121 -13 -68 -13 51
12 15 -42 6 52
-149 12 112 62 52
86 19 133 16 52
100 14 -47 -6 53
-138 7 -139 -41 53
25 8 -50 22 54
143 20 182 42 54
-87 21 160 17 54
-34 31 -10 -6 55
170 15 -163 -15 55
-22 38 -30 6 56
-110 27 15 -2 56
135 14 -29 -7 56
63 11 -118 -19 57
-160 -3 113 76 57
84 -5 -118 -49 57
85 -6 -179 -16 58
-123 -3 31 -11 58
-10 -1 264 58 59
141 20 117 28 59
-104 3 -12 11 59
-36 17 -127 -27 60
153 11 39 7 60
1 18 -11 -7 60
-120 3 -75 -16 61
105 15 -36 -16 61
38 -6 -33 5 61
-139 4 -161 -46 62
37 9 89 28 62
101 8 73 16 62
-112 4 123 53 63
-28 13 36 -15 63
128 10 8 -17 63
-41 14 6 4 64
-82 5 -274 -32 64
158 -3 -254 -49 65
22 16 -1 11 65
-139 21 305 125 65
100 22 176 16 66
88 29 -76 -5 66
-129 1 -169 -19 66
36 6 64 -4 67
130 20 156 32 67
-105 2 64 6 67
-33 25 -154 -34 68
149 17 -121 -2 68
-42 21 -57 17 68
-110 11 42 8 69
140 14 -32 -13 69
26 22 74 -11 69
-146 7 154 47 70
103 27 22 54 70
93 6 12 -4 70
-118 16 -112 -53 71
7 14 -44 28 71
145 21 33 33 72
-90 25 16 33 72
-65 5 16 21 72
160 6 -127 -60 73
-28 16 -28 -4 73
-127 9 57 16 73
132 17 -17 -24 74
49 8 -50 -6 74
-152 0 -11 1 74
69 -1 -31 7 75
104 2 -10 8 75
-146 -1 65 -9 75
-6 2 -64 -16 76
161 4 23 -8 76
-82 13 62 40 76
-70 14 109 36 77
155 31 58 19 77
-17 10 -166 -5 78
-145 -9 -129 5 78
128 22 181 26 78
73 20 175 28 79
-126 12 -68 -28 79
61 -3 -133 -30 79
127 32 7 9 80
-118 16 -33 -8 80
-16 18 -40 1 80
166 13 -39 18 81
-65 19 -88 -11 81
-93 1 -93 -28 81
151 9 -24 6 82
21 20 -12 -1 82
-156 13 125 23 82
93 18 61 26 83
101 27 78 32 83
-153 15 34 -12 83
-3 15 -81 -6 84
152 2 -100 -37 84
-113 2 198 93 84
-32 14 136 35 85
167 14 -25 6 85
-59 20 -219 -51 85
-126 15 -33 -18 86
173 27 111 36 86
53 39 75 19 86
-133 10 -14 2 86
71 -1 -147 -50 87
103 -4 -129 5 87
-167 -1 107 0 87
22 -2 52 -31 88
163 31 86 17 88
-108 12 -95 16 88
-62 7 -266 -19 89
146 11 128 67 89
-29 18 282 43 89
-124 20 50 -34 89
120 11 -124 -11 90
61 3 -147 -41 90
-148 5 17 34 90
65 4 100 -12 90
111 11 -60 -4 91
-153 7 -1 -16 91
2 14 -158 13 91
128 -18 -133 -11 92
-57 32 102 -16 92
-63 26 243 55 92
178 43 116 -8 92
9 11 -311 -64 93
-138 -6 -152 -18 93
119 6 180 54 93
79 34 217 69 94
-135 12 -158 -10 94
29 15 -111 16 94
141 14 232 41 95
-133 2 112 3 95
-41 -4 -208 -83 95
165 -7 -282 -41 95
-56 17 90 -1 96
-121 12 264 52 96
160 15 118 18 96
10 -12 -232 -46 97
-156 -17 -270 -48 97
76 14 20 75 97
105 35 216 26 97
-152 5 22 -37 98
25 -4 -56 -45 98
147 8 -117 5 98
-128 9 20 19 99
-52 29 148 37 99
174 14 -60 -2 99
-2 24 -28 37 99
-128 -9 -70 -35 100
137 3 -16 -39 100
51 2 -75 -3 100
-158 30 94 46 100
106 18 109 18 101
103 23 52 -7 101
-149 1 -37 31 101
4 27 -15 23 101
140 39 106 42 102
-110 13 18 12 102
-48 9 -144 -49 102
178 8 -194 -13 102
13 23 133 16 103
-136 4 -9 -10 103
114 0 44 27 103
64 28 146 30 103
-147 -9 -168 -54 104
2 0 -80 12 104
146 11 -68 61 104
-135 23 178 10 104
-3 22 64 34 105
182 -1 -239 -83 105
-60 20 -87 10 105
-120 22 241 46 105
165 23 275 36 106
21 15 -67 -43 106
-136 -14 -368 -73 106
105 12 32 16 107
80 24 141 37 107
-139 27 40 25 107
45 0 -333 -53 107
141 -20 -251 -33 107
-113 24 319 82 108
-47 42 231 57 108
164 17 29 -60 108
-50 -1 -253 -79 108
-116 21 30 65 109
146 42 350 128 109
36 27 38 47 109
-144 -14 -249 -44 109
79 5 -32 -48 110
105 16 -15 8 110
-148 15 104 44 110
13 2 85 23 110
160 12 -10 -20 111
-107 13 -53 -12 111
-75 10 -123 -25 111
169 -8 -193 -11 111
-28 4 59 48 112
-130 11 220 33 112
128 12 1 9 112
51 -8 -171 -20 112
-154 14 49 -9 113
67 17 141 29 113
125 37 188 33 113
-144 -10 -343 -101 113
-1 -4 -107 8 114
176 27 163 17 114
-78 24 165 62 114
-82 9 -171 -25 114
150 -27 -227 -49 114
17 32 152 50 115
-145 10 216 16 115
120 17 -10 -10 115
90 22 -126 -16 115
-153 11 0 8 116
51 27 -12 -3 116
134 -18 -273 -121 116
-132 39 -18 -1 116
-47 18 230 89 116
168 39 172 26 117
-52 1 -364 -67 117
-104 -4 -108 22 117
153 16 196 50 117
10 34 221 1 117
-140 41 26 -9 118
128 23 -26 62 118
97 31 9 16 118
-143 0 -218 -57 118
21 -6 22 16 118
149 22 148 40 119
-109 24 190 44 119
-88 -38 -496 -133 119
178 6 -123 47 119
-49 22 323 38 120
-120 36 317 73 120
154 11 -131 -72 120
60 -34 -402 -65 120
-153 20 210 62 120
84 29 175 85 120
138 28 -262 -33 121
-168 -50 -374 -61 121
7 32 368 157 121
159 35 349 68 121
-86 48 229 28 121
-83 -43 -503 -126 121
176 12 -35 -67 122
-16 43 264 75 122
-143 39 267 44 122
141 0 -185 -43 122
52 -47 -550 -103 122
-163 36 118 64 122
57 17 230 52 122
138 46 316 84 123
-124 14 -119 -30 123
-43 -52 -474 -53 123
157 42 200 0 123
-90 21 -3 -64 123
-80 25 34 -15 123
159 -23 -326 -76 123
-36 -44 -215 14 123
-138 76 501 106 123
132 52 311 65 123
103 42 235 92 123
-170 -25 -390 -140 124
59 -20 -155 -15 124
138 22 139 45 124
-113 40 241 60 124
-34 10 -142 -14 124
156 -18 -416 -60 124
-60 20 187 2 124
-114 -2 35 2 124
153 -2 112 28 124
19 -1 -124 -23 124
-152 2 32 85 124
102 35 124 3 124
105 29 67 21 124
-150 1 -99 -47 124
22 0 -103 -6 124
175 2 -98 29 124
-109 -19 -27 -36 124
-77 12 -63 -32 124
173 12 -108 3 124
-23 32 103 1 124
-112 12 47 7 124
143 9 76 -2 124
54 28 33 27 124
-136 23 -30 5 124
73 8 27 -16 124
127 14 12 9 124
-146 5 -63 28 124
-8 13 38 22 124
168 8 18 -5 124
-94 0 -65 -14 124
-96 -4 -15 9 124
160 18 28 22 124
0 6 19 6 124
-140 -9 -52 -5 124
113 -12 -105 -40 123
82 13 37 24 123
-144 9 33 19 123
54 5 -30 1 123
147 18 27 40 123
-131 -2 30 -34 123
-34 -12 96 9 122
170 -9 26 23 122
-67 -20 -12 -10 122
-113 0 18 1 121
165 4 70 30 121
22 8 -46 -5 121
-150 -4 -94 -13 121
98 0 33 9 120
96 13 -2 -8 120
-154 10 31 6 120
34 16 -33 -11 119
154 19 24 -5 119
-115 21 -20 -7 119
-57 17 -27 3 118
168 18 -105 0 118
-25 26 37 10 118
-122 7 29 -3 117
148 23 33 -4 117
39 32 61 28 117
-151 26 5 4 116
84 20 29 18 116
112 19 5 0 115
-150 2 -43 -12 115
-1 8 -44 -41 115
165 18 -28 2 114
-106 2 31 8 114
-74 12 40 34 113
161 7 21 2 113
-26 4 -54 -22 112
-139 -9 -119 -18 112
128 4 -57 5 111
55 5 68 13 111
-158 4 -13 10 110
54 5 54 0 110
132 3 -134 -27 109
-157 -4 -70 -15 109
-1 16 81 -12 108
157 9 64 1 108
-58 17 55 -5 107
-101 4 -84 -31 107
106 -4 -73 -8 106
-6 8 9 22 106
-93 6 16 -11 105
130 4 44 20 105
126 2 -28 -14 104
-162 -4 -70 -13 104
15 4 -50 16 103
150 8 1 30 103
-110 6 -32 -28 102
-43 1 -67 -10 102
157 10 -30 -15 102
-66 12 29 14 101
-102 6 79 21 101
149 11 -11 40 100
41 20 -56 -12 99
-148 3 -81 -6 99
89 24 80 -6 98
96 8 86 7 98
-157 5 89 19 97
11 6 -6 -10 97
157 7 -52 -9 96
-99 8 -39 -2 96
-60 8 -48 9 95
162 2 -35 -13 95
-34 11 18 25 94
-139 24 20 21 94
158 13 -55 9 94
72 14 -77 11 93
-138 2 55 0 93
78 1 36 8 92
114 8 6 -8 92
-143 4 -98 -24 91
-26 6 15 22 91
159 20 38 2 91
-81 6 -48 -16 90
-81 5 -41 -12 90
170 13 -2 0 89
-11 9 67 21 89
-145 16 -7 21 88
119 9 88 30 88
73 3 35 18 87
-149 1 16 1 87
38 1 -67 -3 86
141 16 -37 7 86
-105 2 28 6 86
-21 2 -11 0 85
177 8 -50 -8 85
-67 9 -40 -16 84
-107 5 -34 -1 84
151 14 -40 2 84
23 21 -78 -9 83
-152 4 -67 -11 83
112 6 -94 -18 82
85 11 175 54 82
-150 14 175 34 82
31 11 73 10 81
148 12 -16 -5 81
-122 16 -29 15 80
-49 7 73 11 80
165 13 34 -3 79
-29 11 -28 -5 79
-113 12 -52 -8 79
138 9 -37 -5 78
32 31 -32 1 78
-144 2 -33 3 78
89 9 -14 -6 77
119 5 -56 -17 77
-132 5 -98 -23 76
12 4 -172 -37 76
140 7 -99 0 76
-101 5 218 36 75
-64 3 254 18 75
160 8 198 26 74
-31 3 -104 -40 74
-130 -1 -141 -12 73
122 15 34 35 73
63 8 55 18 73
-142 18 45 30 72
57 8 -26 -12 72
125 12 -50 -21 71
-130 4 -28 -7 71
-34 9 -43 9 70
175 8 -38 3 70
-72 16 -58 7 70
-85 5 -62 -15 69
154 28 -133 -37 69
-17 13 97 32 68
-111 12 124 17 68
115 10 81 -2 68
76 6 -74 -30 67
-129 1 -41 -19 67
32 5 120 52 66
128 11 127 38 66
-113 6 -25 13 65
-45 7 -121 -41 65
142 7 1 -9 64
-45 4 46 0 64
-109 1 34 0 64
145 7 -38 -11 63
21 7 -91 -15 63
-140 4 -90 -13 62
86 30 -32 10 62
95 14 33 14 61
-159 4 4 -18 61
30 7 -33 -7 60
157 10 -74 -11 60
-73 6 -15 -18 60
-50 18 17 -11 59
164 18 99 23 59
-24 20 188 81 58
-101 9 134 58 58
128 4 34 17 57
53 20 -42 8 57
-134 9 -23 -7 56
64 -1 -11 0 56
103 6 -65 -16 55
-138 -5 -123 -24 55
-24 -4 -54 -9 54
135 10 -77 -20 54
-75 18 -46 -11 54
-68 10 43 24 53
151 25 79 27 53
9 25 33 21 53
-136 12 -78 -27 52
100 17 -167 -1 52
72 9 62 40 51
-134 2 156 19 51
55 6 134 20 51
136 25 34 5 50
-120 11 -97 -5 50
-27 10 -63 9 50
151 13 12 2 49
-62 6 16 8 49
-108 -3 -26 -14 49
139 11 -93 -27 48
4 15 -121 -7 48
-129 10 67 26 48
106 14 118 20 47
75 13 88 16 47
-148 7 -17 -13 47
39 10 -113 -15 46
155 26 -68 24 46
-91 18 -7 2 46
-47 11 49 0 45
157 18 7 -3 45
-52 9 -60 -10 45
-107 10 -53 -4 44
135 7 12 0 44
38 14 102 9 44
-136 12 23 0 43
80 14 -17 13 43
103 23 12 7 42
-129 17 24 10 42
4 10 36 8 42
163 18 2 19 41
-80 11 -43 6 41
-66 10 -73 -9 41
155 15 -73 12 40
-15 14 -30 24 40
-120 7 80 19 40
121 12 57 11 39
55 12 -41 -14 39
-122 20 -92 -5 39
51 22 -69 8 38
124 17 124 33 38
-139 -8 129 -7 38
14 27 51 16 37
154 21 -52 -1 37
-56 26 -84 14 36
-71 10 12 11 36
139 9 61 -3 36
-7 8 44 -1 36
-113 7 9 -14 35
90 4 -52 -3 35
72 9 -50 6 35
-136 0 -27 4 34
34 -3 -34 0 34
121 14 -70 -7 34
-103 11 -67 3 33
-32 19 -19 19 33
133 10 105 22 33
-45 15 112 -1 32
-94 18 39 -15 32
124 18 -22 -17 32
28 23 -32 15 32
-130 7 -32 -10 31
73 11 -23 -4 31
83 11 -36 0 31
-121 6 -23 -7 30
5 4 -16 -10 30
120 10 17 5 30
-85 16 7 12 29
-57 16 2 17 29
146 16 -11 10 29
-18 15 -21 -3 28
-99 10 -18 -5 28
124 32 -3 22 28
51 20 21 31 27
-113 15 17 18 27
47 -8 -32 -16 27
107 13 -28 -2 26
-110 4 -12 0 26
-8 13 13 -3 26
146 19 30 6 25
-100 -20 -9 -21 25
-66 21 0 4 25
178 33 0 9 24
-9 5 -6 -7 24
-123 5 -8 -13 23
111 13 1 8 23
61 18 -7 13 22
-129 13 -11 14 22
52 20 -1 13 22
119 12 5 2 21
-101 23 5 12 21
-19 13 2 16 21
168 22 13 6 20
-37 22 5 19 20
-98 -8 -17 -1 19
104 4 -26 -8 19
22 21 -4 -2 19
-137 6 -7 -4 18
71 8 -11 -12 18
86 9 -5 4 18
-123 16 -9 3 17
12 4 -10 -2 17
132 15 9 -8 17
-112 -7 -18 -11 16
-50 4 -15 1 16
145 13 -17 9 16
-40 8 -9 0 15
-84 17 2 -4 15
118 8 -5 -3 15
21 -4 -7 -5 15
-153 -8 -31 -37 14
57 -11 -12 -10 14
98 15 -17 -29 14
-97 12 16 18 14
13 13 -12 -8 13
161 42 23 39 13
-60 26 -2 14 13
-50 25 2 15 13
155 24 4 17 12
2 24 -11 10 12
-130 -5 -22 -10 12
125 16 -10 -6 12
44 6 -3 0 12
-134 2 -12 -6 12
52 -4 -9 5 12
104 0 -29 -17 11
-143 -7 -20 -21 11
-5 8 3 14 11
149 20 10 11 11
-65 10 -2 -2 11
-77 5 -12 -10 11
137 8 -9 17 11
18 40 24 32 10
-111 13 8 5 10
104 -6 -26 -28 10
54 2 -29 -20 10
-153 -6 -25 -6 10
20 1 -26 -28 10
132 12 -28 9 10
-95 15 -7 24 10
-27 12 -32 -4 10
139 5 7 19 10
-49 13 6 15 10
-85 6 -3 13 9
120 -2 -31 -11 9
12 -5 -4 -1 9
-145 -6 -15 -15 9
93 8 -9 -14 9
83 28 2 -12 9
-128 15 16 2 9
39 19 12 -9 9
146 22 26 20 9
-99 9 0 -23 9
-50 14 -5 20 9
142 13 -9 32 8
-41 9 -39 -12 8
-96 4 -17 -1 8
118 16 -15 13 8
23 7 -16 11 8
-131 20 0 5 7
57 0 -1 -16 7
102 15 10 -5 7
-125 7 5 -7 7
-8 0 -11 -1 6
126 4 -10 4 6
-72 12 -5 3 6
-81 -19 -37 -70 6
148 4 56 48 6
-16 3 9 -1 5
-110 9 -19 -39 5
90 0 6 14 5
80 37 -14 -1 5
-137 4 8 28 5
60 13 -31 -23 4
118 21 -20 64 4
-111 14 -10 18 4
-24 9 -4 48 4
160 22 3 -3 4
-62 8 1 16 4
-89 8 -9 23 3
138 10 4 -4 3
-10 -11 -3 -27 3
-113 28 6 3 3
101 18 6 10 2
85 19 0 7 2
-151 -12 -8 -8 2
38 15 -6 8 2
124 17 2 7 2
-114 7 -6 -2 1
-22 16 4 -3 1
158 22 8 7 1
-41 31 -13 -37 1
-112 -5 21 24 1
134 8 -60 -1 1
3 -10 -21 -83 1
-139 7 -58 -23 1
87 27 3 31 0
98 45 6 47 0
-132 25 -9 5 0
16 5 2 20 0
140 15 5 22 0
-92 1 -9 8 0
-58 -13 -5 -11 0
154 0 6 9 0
-27 5 -3 8 0
-121 -4 1 -6 0
125 1 8 -2 0
55 14 4 -1 0
-160 -8 -20 -33 0
68 8 18 22 0
118 16 19 -4 0
-115 10 -15 4 0
-3 9 -18 -8 0
152 12 -5 18 0
-77 8 -3 8 0
-76 8 -11 4 0
149 13 -9 7 0
-1 6 -3 4 0
-129 8 -8 -7 0
101 8 -8 -6 0
74 15 -7 1 0
-143 3 -24 -5 0
36 -1 -41 -14 0
144 21 -76 10 0
-99 12 -73 12 0
-28 10 -63 -4 0
146 13 27 4 0
-59 8 47 2 0
-81 14 110 13 0
137 8 60 17 0
15 16 92 20 0
-132 10 69 -3 0
94 13 90 -1 1
88 19 39 1 1
-138 9 -22 -4 1
30 18 -132 -15 1
142 22 -179 -10 1
-104 15 -175 -8 2
-44 14 -14 23 2
139 12 156 30 2
-36 4 71 -6 2
-104 17 -36 -15 3
134 17 -77 5 3
44 14 89 49 3
-135 8 162 29 4
71 5 93 7 4
101 9 -17 -15 4
-135 -2 -90 -31 5
15 12 -147 -26 5
147 14 -185 -21 5
-84 12 -148 -21 6
-71 11 92 0 6
147 14 163 27 6
-5 19 38 -15 7
-110 17 -97 -3 7
129 34 39 46 7
60 33 190 78 8
-129 22 149 27 8
57 5 26 3 9
112 10 -68 -20 9
-118 9 -80 -9 10
-12 1 -129 -31 10
135 -2 -110 -22 10
-72 -3 -1 -1 11
-94 -4 41 1 11
127 4 -94 -39 12
-6 6 -170 -23 12
-123 13 -56 -13 13
100 20 187 67 13
85 15 155 20 14
-114 20 27 13 14
32 18 4 11 15
136 30 20 16 15
-92 15 50 8 16
-42 11 -7 9 16
144 7 -107 -41 17
-67 9 -61 -7 17
-100 0 -56 -17 17
130 5 -66 9 18
22 6 -26 -4 18
-139 4 -88 -7 19
71 6 -120 -22 20
94 12 58 10 20
-119 14 208 30 20
32 14 222 31 21
144 17 50 10 22
-97 8 -77 -4 22
-58 6 -27 -23 23
133 5 64 41 23
-12 17 -35 3 24
-107 7 -137 -3 24
126 10 -154 -9 25
54 6 -50 -6 25
-128 7 75 37 26
62 19 95 -10 26
116 27 149 54 27
-121 17 -38 -12 27
-3 7 -116 -19 28
144 8 -121 -27 28
-87 9 47 13 29
-74 -4 37 0 30
128 4 -12 7 30
-17 3 -64 32 30
-126 -4 167 47 31
103 10 78 -11 32
64 5 -82 -41 32
-141 0 -150 -33 33
49 -2 -41 -23 33
126 5 79 12 34
-124 4 -11 -30 34
-30 14 -84 -1 35
168 24 -33 19 35
-34 28 0 24 36
-78 24 19 8 36
158 30 1 32 36
3 23 121 43 37
-130 10 18 -3 37
106 4 -7 -9 38
81 18 27 7 38
-125 14 33 15 39
14 20 28 18 39
139 19 -54 18 40
-113 5 -87 -21 40
-43 15 6 17 41
169 26 59 23 41
-31 15 -136 -48 42
-97 -4 -271 -99 42
118 3 -248 -29 43
20 10 116 33 43
-145 6 358 67 44
64 8 300 36 44
85 11 36 -4 45
-131 13 -108 -29 45
-11 10 114 42 46
148 21 100 31 46
-94 5 -43 0 47
-70 2 -226 -33 47
156 8 -179 -34 48
-28 10 -71 -6 48
-120 9 4 -16 49
138 32 -42 -1 49
70 17 -144 -18 50
-131 16 -41 -10 51
63 19 86 -5 51
125 27 281 87 52
-116 9 73 4 52
-2 9 -135 -2 52
147 13 -83 -6 53
-83 12 17 35 53
-94 13 80 41 54
141 15 -54 16 54
-10 7 2 -18 55
-141 1 40 -27 55
102 8 110 2 56
61 8 55 28 56
-147 10 -87 -22 57
35 7 -121 6 57
145 23 -161 -38 58
-113 5 -253 -19 58
-58 15 -103 2 58
192 18 334 65 59
-47 27 365 36 59
-76 18 216 23 60
158 23 -56 0 60
20 17 -198 -23 60
-138 11 -160 -17 61
94 13 -82 16 61
105 15 82 48 62
-133 15 37 4 62
16 4 -163 -39 62
147 1 -126 -54 63
-119 5 130 74 63
-56 25 131 41 64
143 14 65 -14 64
-30 7 -5 9 64
-121 -14 -29 -61 65
116 -9 -11 5 65
22 -5 -7 0 65
-146 -3 -40 -24 66
54 2 -79 8 66
98 2 -41 -16 66
-135 10 29 0 67
0 6 -54 -44 67
137 8 -204 -23 67
-68 27 -27 23 68
-69 19 187 26 68
144 13 181 58 68
14 17 -62 -7 69
-121 5 3 47 69
123 26 189 39 69
72 17 -47 3 70
-143 6 -236 -29 70
58 9 4 8 70
123 18 212 13 71
-112 11 -45 -66 71
-15 15 -155 -18 71
168 9 11 34 72
-54 16 154 90 72
-93 13 115 26 72
148 7 -76 -34 73
-6 12 -41 -15 73
-124 -3 -33 11 73
110 12 -220 -46 74
87 22 -12 28 74
-126 15 229 4 74
43 12 119 14 75
128 10 -44 12 75
-104 -5 -213 -49 75
-54 0 35 35 75
145 -4 131 -4 76
-56 20 178 45 76
-103 19 50 21 76
151 19 -125 -25 77
25 3 -302 -76 77
-137 10 -82 3 77
76 13 187 77 78
100 16 183 39 78
-142 -3 -97 -41 78
10 -1 -297 -92 79
149 9 -16 6 79
-90 31 147 28 79
-61 23 178 61 80
168 23 -33 47 80
-30 17 -207 -19 80
-121 4 -13 -4 80
138 27 103 -19 81
62 27 131 35 81
-142 15 -86 -30 81
64 6 -132 -4 81
102 -4 -34 -18 82
-124 14 40 -26 82
-11 8 37 5 82
160 14 7 23 83
-78 12 78 36 83
-82 10 -7 17 83
151 14 -9 -6 83
-2 20 -98 3 84
-127 11 10 33 84
116 15 97 3 84
69 18 -52 -17 84
-135 7 -116 -27 84
62 5 -122 -5 85
135 16 62 -16 85
-123 14 106 20 85
-42 -2 47 -7 85
150 5 -121 0 85
-75 9 -123 -12 86
-96 26 172 54 86
152 20 204 43 86
29 24 13 -1 86
-142 2 -78 -10 86
95 7 -43 -20 87
91 6 -30 -31 87
-147 11 -31 -13 87
19 3 20 49 87
143 24 -12 17 87
-103 8 -96 -14 88
-47 -5 -206 -57 88
175 22 -62 17 88
-42 25 185 34 88
-108 21 110 34 88
141 11 -10 -19 88
2 -5 -169 -41 89
-143 -3 68 -19 89
76 9 255 20 89
123 21 148 39 89
-121 4 -136 -2 89
-3 -16 -278 -49 89
138 11 2 -13 89
-92 16 115 54 90
-73 10 118 32 90
162 7 -50 45 90
-42 24 -136 -29 90
-115 6 -52 1 90
157 24 91 32 90
66 14 -12 8 91
-123 0 71 18 91
54 5 4 15 91
110 6 -135 -11 91
-119 16 32 17 91
-10 0 129 20 91
152 19 12 -4 92
-86 0 -228 -49 92
-77 15 -134 -20 92
134 16 308 88 92
8 16 238 36 92
-171 -11 -132 -35 92
115 -2 -186 -14 93
80 13 157 33 93
-136 18 21 -9 93
49 12 -256 -36 93
140 -3 -165 -36 93
-122 10 129 41 94
-44 12 277 38 94
159 18 -103 -11 94
-93 15 -130 47 94
-79 6 218 35 94
143 19 124 20 94
49 33 44 8 95
-112 -6 -186 -44 95
81 -24 -198 -38 95
94 7 8 -44 95
-144 14 173 70 95
32 15 -117 -2 96
130 -5 -199 -12 96
-96 18 70 -34 96
-61 13 285 88 96
160 26 221 47 97
-26 4 -346 -62 97
-116 -14 -407 -31 97
125 22 180 15 97
47 31 316 59 97
-135 16 80 -7 98
64 -13 -340 -82 98
128 8 -145 -22 98
-145 23 96 -2 98
-2 21 36 18 99
161 20 -28 10 99
-72 8 -20 -11 99
-74 8 29 4 99
130 26 123 26 99
4 35 64 13 100
-131 35 153 48 100
123 18 -79 -53 100
63 -7 -308 -72 100
-153 15 -56 -8 101
43 16 113 15 101
137 36 192 76 101
-124 16 -36 -7 101
-31 -20 -476 -94 102
168 8 -325 -8 102
-70 23 336 64 102
-88 22 319 6 102
154 16 304 35 102
27 2 -314 -80 103
-145 -18 -226 4 103
113 28 235 72 103
85 34 136 57 103
-138 16 -92 -7 104
20 -22 -345 -54 104
120 0 54 -3 104
-94 14 128 20 104
-32 25 322 77 105
174 -6 -222 -91 105
-40 -9 -154 0 105
-128 21 160 35 105
137 25 74 64 105
33 32 -124 -32 106
-182 -28 -337 -70 106
106 15 123 39 106
113 26 186 26 106
-118 48 86 55 107
21 -23 -597 -99 107
138 -15 -206 -53 107
-122 22 465 81 107
-56 24 437 70 107
159 17 42 -37 107
-25 -19 -443 -118 108
-107 2 -169 -33 108
123 32 228 91 108
50 38 168 49 108
-141 0 -311 -74 108
61 -16 -324 -58 109
114 21 337 68 109
-133 39 328 39 109
-6 37 338 72 109
157 -17 -386 -103 110
-58 6 -235 -14 110
-92 15 182 79 110
157 25 37 33 110
8 -33 -744 -188 110
-121 -25 -302 -30 110
99 32 659 148 111
88 71 578 119 111
-128 43 249 54 111
51 -83 -963 -255 111
121 -30 -391 -4 112
-152 60 630 171 112
-12 73 491 107 112
180 60 255 74 112
-47 -22 -470 -113 112
-105 -9 -255 -3 113
145 26 219 39 113
22 21 122 25 113
-135 11 -114 -47 113
72 -30 -514 -116 114
115 37 71 40 114
-152 33 265 52 114
43 38 21 -10 114
136 -58 -569 -115 114
-122 19 -76 46 115
-68 64 672 225 115
161 76 478 114 115
-41 -8 -207 -56 115
-122 -46 -356 -75 115
136 32 210 91 116
45 61 195 57 116
-136 0 -192 -57 116
54 -52 -419 -56 116
120 41 324 103 117
-140 41 275 86 117
9 44 248 60 117
173 1 -306 -54 117
-127 -67 -447 -107 117
-67 29 211 87 118
165 31 248 52 118
-19 45 249 36 118
-130 -6 -233 -72 118
104 -58 -441 -108 118
73 3 27 -8 118
-167 4 45 57 119
76 30 244 46 119
120 11 107 -5 119
-141 20 -161 -22 119
-59 -57 -317 -75 119
194 33 235 64 119
-72 9 260 89 120
-78 72 398 107 120
181 18 -261 -53 120
-24 -45 -673 -153 120
-156 0 99 33 120
119 14 253 20 120
78 43 301 81 120
-136 9 -301 -84 121
-6 -87 -709 -45 121
143 42 430 28 121
-107 48 271 37 121
-54 22 164 -23 121
194 18 -133 47 121
-63 -32 -526 -70 121
-130 -2 191 67 121
163 59 241 -31 122
25 79 224 42 122
-148 65 275 103 122
95 2 -195 -29 122
103 -8 -404 -60 122
-150 -20 -7 -36 122
28 30 216 31 122
156 32 63 15 122
-146 -69 -720 -206 122
-24 32 23 -60 123
167 25 325 113 123
-20 86 566 117 123
-102 15 -163 -62 123
87 -149 -808 -192 123
60 10 87 -25 123
-147 66 447 146 123
94 89 339 129 123
117 11 -228 -41 123
-164 -130 -943 -242 123
2 -4 58 15 123
171 85 620 182 124
-70 86 602 156 124
-73 36 107 27 124
159 -34 -480 -106 124
-25 -49 -330 -49 124
-118 38 236 56 124
126 15 -6 -6 124
60 2 129 1 124
-162 14 -59 -8 124
58 12 -206 -16 124
123 -23 -104 9 124
-111 -21 -17 5 124
-13 4 -158 -24 125
163 35 -80 -33 125
-66 55 240 75 125
-73 14 139 57 125
151 37 267 112 125
14 37 -5 5 125
-140 13 -29 -4 125
99 -1 -39 -9 125
110 12 -55 3 125
-145 5 -43 -11 125
33 7 -21 -5 124
148 14 -24 5 124
-121 13 -40 -1 124
-32 16 -3 -1 124
163 17 -13 -7 124
-44 8 -214 -43 124
-116 9 25 11 124
148 25 128 47 124
56 27 198 55 124
-146 8 3 -6 124
75 -17 -210 -35 124
108 1 -31 -10 124
-149 13 114 19 124
19 15 62 44 123
156 8 31 -10 123
-103 7 -34 -15 123
-78 1 29 -11 123
166 12 -19 -16 123
-24 10 -128 -30 122
-131 -12 -55 -29 122
144 1 16 17 122
45 -20 45 -14 122
-158 -19 -11 8 121
65 -18 -7 16 121
129 24 82 33 121
-136 16 94 42 120
9 -3 -88 -41 120
102 -19 -219 -63 120
-87 24 78 58 120
-67 25 145 58 119
174 28 160 51 119
27 -2 -20 -31 118
-136 -13 -145 -39 118
99 4 -32 21 118
61 -1 10 2 118
-148 2 21 -14 117
38 4 2 -10 117
126 7 -64 -14 117
-134 -21 -121 -8 116
-45 -4 58 -7 116
149 7 11 -9 116
-70 4 -7 -5 115
-118 4 -81 -21 115
145 -1 27 8 115
25 11 -17 -42 114
-142 13 46 -3 114
128 40 27 41 113
107 29 26 45 113
-144 8 -64 18 112
20 16 -100 -20 112
142 16 28 9 112
-120 12 128 11 111
-52 4 55 9 111
137 4 -8 3 110
-28 10 2 9 110
-120 -8 -118 -37 109
144 9 -101 -13 109
40 14 27 12 109
-113 17 138 31 108
81 6 19 -15 108
117 2 -161 -47 107
-126 5 -23 2 107
-13 22 194 61 106
167 34 182 61 106
-72 16 33 5 106
-72 1 -143 -45 105
145 6 -108 -4 105
-20 15 -1 -11 104
-131 6 30 -3 104
126 15 52 19 104
52 10 -13 5 103
-140 1 -134 -27 103
51 1 -72 -24 103
109 19 75 40 102
-120 11 92 57 102
-9 3 52 13 102
179 7 -58 -18 101
-69 6 -109 -15 101
-108 0 -1 -3 101
149 13 44 20 100
-2 13 75 7 100
-146 0 -6 -15 100
109 8 -43 -6 99
77 11 -39 -2 99
-143 6 -56 -26 99
41 5 -57 -22 98
138 16 81 20 98
-119 10 52 18 98
-33 8 15 6 97
161 12 -106 -22 97
-52 16 -35 -18 96
-100 10 40 27 96
154 11 4 17 96
30 14 4 32 95
-140 16 30 1 95
100 23 67 21 94
102 14 6 6 94
-145 3 -161 -39 94
25 8 -48 1 93
153 9 71 26 93
-102 6 91 21 92
-59 4 57 9 92
164 7 -72 -17 92
-41 4 -174 -25 91
-135 4 38 19 91
145 1 127 24 90
42 8 81 4 90
-143 8 7 0 90
79 9 -61 13 89
118 11 -10 15 89
-137 12 35 5 88
-3 2 -61 -20 88
154 8 -60 -13 87
-93 -1 -88 -19 87
-97 5 -92 3 86
152 22 74 26 86
20 27 125 42 86
-127 10 50 11 85
128 7 -37 -8 85
45 7 -46 2 84
-154 7 78 12 84
62 9 71 28 83
135 11 -16 -10 83
-113 3 -75 -6 82
-32 -2 -25 -3 82
148 7 -26 -11 82
-66 6 -22 -3 81
-88 6 -9 5 81
152 12 -18 2 80
5 9 -16 -1 80
-135 -1 -17 -6 80
99 6 -8 1 79
80 2 -35 -10 79
-146 -4 -165 -39 78
30 3 -97 -1 78
133 13 97 25 78
-115 3 140 7 77
-48 7 124 -5 77
157 11 -47 -16 76
-44 7 -26 -7 75
-111 4 114 47 75
133 14 82 33 74
33 19 32 33 74
-143 10 -34 -12 73
90 14 -59 -17 73
104 8 -30 -9 72
-144 2 -38 -15 72
13 -2 -51 -26 71
151 13 -32 -9 71
-102 16 -20 -4 70
-74 11 -31 -5 70
171 17 14 18 70
-17 13 -60 -28 69
-118 4 -128 -15 68
132 13 -17 -3 68
37 18 151 51 67
-154 13 180 21 67
68 10 42 1 66
128 13 -93 -25 66
-129 10 -43 10 65
-12 11 29 14 65
153 14 45 19 64
-81 11 7 -1 64
-85 8 -21 -12 63
154 12 -45 -2 63
-6 10 -37 2 62
-131 4 -18 -3 62
128 6 -9 2 61
70 10 -103 -29 61
-158 4 -69 -17 60
55 6 6 14 60
141 23 100 41 59
-114 15 98 24 59
-31 8 -55 -12 58
152 7 -95 -22 58
-68 10 -5 7 57
-98 9 81 20 57
151 4 63 9 56
9 -13 10 2 56
-142 -12 -9 -9 55
104 -6 -15 2 55
88 -6 -26 7 54
-131 8 -22 7 54
23 3 -2 8 53
136 12 -64 0 53
-102 13 -126 -12 52
-53 0 -94 -39 52
142 6 60 8 51
-38 21 178 49 51
-104 21 83 20 50
130 19 -85 -9 50
50 20 -132 -23 49
-133 24 -42 -16 49
70 10 132 37 49
96 11 111 16 48
-130 9 44 -2 48
8 17 -38 -2 47
146 11 -51 -5 47
-72 14 -21 6 46
-64 11 -31 3 46
157 13 -26 3 46
-10 16 -16 6 45
-120 6 -27 -3 45
114 14 -16 6 45
65 18 -11 5 44
-130 22 1 15 44
56 16 -20 -2 44
114 11 -24 -6 43
-126 6 -68 -23 43
-22 2 -103 -25 43
160 17 -28 -3 42
-62 21 72 11 42
-73 9 134 16 42
142 23 102 19 41
-14 6 -5 0 41
-129 2 -34 -7 40
104 17 -37 0 40
88 40 -22 20 40
-119 17 -31 6 39
40 17 -17 8 39
128 21 5 3 39
-96 19 -4 11 38
-20 21 -29 10 38
177 41 30 41 38
-27 47 26 31 37
-55 54 64 42 37
176 48 19 43 36
81 69 33 62 36
-143 7 -17 4 36
51 -22 -54 -35 35
27 -58 -119 -79 35
-203 -54 -94 -70 35
-9 -16 -7 -18 34
102 -30 3 -35 34
-124 -12 -64 -42 34
-104 -33 -115 -47 33
110 -19 -76 -39 33
-50 -9 101 16 32
-135 -8 94 -7 32
118 2 50 1 32
48 13 -17 5 31
-129 12 -34 10 31
73 13 -17 6 31
102 15 -27 0 31
-115 18 -31 5 30
100 98 74 94 30
225 104 66 92 30
-9 100 62 82 30
-54 0 -20 -4 29
97 -28 -54 -44 29
-76 -40 -48 -43 29
-188 -71 -84 -65 29
58 -53 -66 -61 28
40 -19 -33 -27 28
-161 -15 -26 -17 28
80 19 7 16 28
129 21 10 18 28
-103 24 14 18 28
2 30 11 20 27
161 26 9 20 27
-89 -17 -33 -25 27
-112 -20 -33 -26 27
124 -4 -21 -15 27
3 14 -3 4 27
-137 1 -9 -3 27
105 12 0 12 26
95 24 5 21 26
-135 13 -2 4 26
10 -9 -25 -16 26
113 -7 -14 -7 26
-116 32 -9 4 25
-21 22 11 19 25
156 17 -4 6 25
-31 25 21 27 25
-103 -5 7 9 25
153 47 3 13 25
35 24 -4 5 24
-133 35 6 13 24
78 -2 -15 0 24
106 17 -5 6 24
-129 32 -12 2 24
10 23 -3 0 23
150 13 8 16 23
-105 -2 -15 -10 23
-51 10 -1 0 23
159 14 0 14 23
-31 8 -7 -4 22
-96 10 20 22 22
144 17 -9 4 22
38 8 3 23 22
-144 0 -11 2 22
81 20 9 6 22
130 32 25 26 21
-94 39 28 32 21
3 8 -7 -4 21
144 17 -1 8 21
-74 14 0 8 21
-91 -4 -10 -8 20
152 12 11 17 20
-8 7 -10 -1 20
-131 4 -7 -7 20
88 -8 -35 -24 20
64 12 -1 -1 20
-144 7 -2 12 20
43 11 -9 5 19
141 17 -3 3 19
-118 14 -6 -11 19
-40 6 -5 1 19
169 21 8 8 19
-67 5 3 5 19
-107 3 -27 -15 19
137 5 -22 -10 19
11 15 -18 -10 19
-138 4 -2 -11 19
101 15 17 18 19
71 -3 -17 -15 19
-146 -4 -25 -27 19
41 7 -6 -13 18
136 8 3 8 18
-94 16 9 27 18
-32 9 -6 18 18
158 19 5 20 18
-45 12 -27 -17 18
-136 -12 -20 -21 18
158 46 15 12 18
45 29 7 4 18
-133 25 26 20 18
112 28 7 9 18
100 18 12 23 17
-135 16 -12 5 17
14 0 -11 -1 17
164 24 12 13 17
-95 15 3 7 17
-64 9 -17 -8 17
143 -2 -16 -13 16
-18 25 4 10 16
-141 -17 -20 -17 16
131 10 -2 -6 16
49 4 -2 1 16
-155 16 -10 -11 15
61 13 -8 -9 15
105 -11 -33 -19 15
-130 1 -39 -28 15
-4 7 -6 4 15
169 35 18 12 14
-89 6 -24 -12 14
-94 2 -3 5 14
174 25 -11 11 14
1 16 -2 10 14
-134 20 5 9 13
111 18 -22 -22 13
92 39 40 44 13
-164 -4 1 -1 13
58 12 -10 3 13
147 18 14 11 12
-120 8 0 1 12
-34 7 2 7 12
178 -5 -16 3 12
-69 -8 -13 -11 12
-99 -1 -7 2 12
141 1 13 10 11
10 6 -35 -20 11
-174 -23 -33 -13 11
102 17 -9 9 11
75 2 -7 -14 11
-157 0 15 3 11
17 17 -25 -19 11
152 30 4 12 11
-114 8 -34 -19 10
-44 12 -8 14 10
156 15 -15 -7 10
-33 32 15 10 10
-126 1 -20 -3 10
141 9 -17 -2 10
3 -11 5 8 10
-135 15 8 14 9
90 14 -3 -3 9
102 11 -4 -1 9
-142 -1 -4 -12 9
7 10 13 -3 9
144 -17 0 2 9
-94 12 -17 7 9
-64 -1 -26 -23 8
156 19 19 40 8
-23 6 -32 -42 8
-123 14 70 71 8
138 15 -9 32 8
57 14 13 39 8
-165 -10 -45 -28 7
59 -8 -9 5 7
126 17 10 12 7
-132 15 2 23 7
-13 8 -9 -6 7
150 7 -3 -5 7
-66 32 16 15 6
-92 6 -12 -4 6
178 25 47 37 6
-18 -3 -16 -24 6
-147 8 -13 -55 6
141 48 35 41 5
90 33 -33 -8 5
-154 21 -10 21 5
33 -9 -30 -25 5
145 25 34 20 5
-104 46 7 19 5
-15 66 -24 -2 4
180 30 -16 -13 4
-50 9 -14 11 4
-115 -20 0 6 4
152 12 6 -6 3
13 -10 32 4 3
-148 -18 -15 -13 3
101 -3 3 1 3
119 29 10 14 3
-141 8 4 0 3
21 10 5 6 3
145 6 -7 -4 2
-114 7 -12 -4 2
-56 -8 -22 -9 2
155 3 -15 -6 2
-31 15 3 13 2
-118 8 0 6 2
145 12 -4 6 2
11 -12 -25 -10 2
-137 20 -4 9 2
84 3 -6 4 2
129 26 5 24 2
-146 0 -17 -29 2
4 13 34 41 2
160 16 -4 14 2
-93 10 -21 2 2
-82 -8 -27 -13 2
168 13 -2 6 2
-25 -1 -6 8 2
-132 5 -3 -2 2
121 0 -18 -13 2
50 4 -12 -9 2
-150 13 -13 4 2
64 7 -31 -9 2
133 13 -25 0 2
-140 12 -14 -2 3
-32 11 10 2 3
163 5 16 5 3
-82 5 3 -10 3
-105 8 -3 -2 3
174 26 -17 10 3
-5 -2 1 14 4
-133 12 22 6 4
118 10 31 5 4
84 19 7 7 4
-150 10 -19 -3 4
43 8 -36 1 5
144 13 -15 14 5
-136 2 -15 -3 5
-40 3 -52 -8 5
167 10 -67 -10 6
-54 21 -88 11 6
-111 6 -5 17 6
151 8 43 4 7
12 2 57 -3 7
-144 6 -33 -37 7
101 4 -47 -9 8
105 18 63 9 8
-151 12 188 62 8
33 22 -2 -28 9
169 20 -144 -34 9
-105 22 -160 -8 9
-64 2 121 67 10
160 8 231 62 10
-37 15 170 39 10
-118 15 -15 -8 11
146 15 -85 -16 11
51 12 -52 1 12
-155 8 -54 -9 12
79 18 -131 -38 12
112 6 -131 -33 13
-151 -5 -135 -34 13
-15 -12 -12 -4 14
162 12 -44 -10 14
-88 5 -108 -6 15
-84 13 -88 28 15
149 4 148 33 16
-17 13 276 57 16
-122 8 76 -15 17
125 10 -89 -13 17
85 17 -37 -12 18
-153 8 221 65 18
48 6 171 20 19
118 4 11 -12 19
-132 2 -99 -35 20
-50 0 -87 -9 21
142 9 -105 -12 21
-59 2 -150 -36 22
-102 11 -175 -38 22
191 14 -86 -6 23
25 6 94 41 24
-135 1 91 25 24
107 1 -86 -29 25
73 1 -231 -55 26
-158 5 -97 -26 26
7 -1 209 66 27
116 22 249 50 28
-124 9 103 9 28
-44 6 -43 -10 29
155 5 28 -3 30
-46 8 100 24 30
-95 11 26 1 31
150 21 -110 -24 32
45 20 -258 -28 32
-118 22 -153 1 33
98 19 64 76 34
111 15 75 6 34
-122 14 109 14 35
5 8 77 34 36
150 30 65 18 36
-80 10 62 28 37
-33 11 -33 -4 37
162 20 -45 -26 38
-23 21 48 41 38
-115 21 -40 0 39
137 25 -79 -6 39
59 17 -112 -1 40
-143 6 -127 -13 40
74 1 -54 -6 41
116 13 -18 -7 41
-132 11 76 -7 42
-8 9 135 40 42
137 14 43 21 43
-80 30 -165 -27 43
-81 8 -106 2 44
145 28 213 55 44
-4 26 306 72 45
-118 11 122 13 45
128 12 -153 -49 46
68 -1 -212 -55 46
-144 5 -27 12 47
42 7 72 22 47
124 25 -84 9 48
-115 12 -110 -33 49
-2 11 -3 22 49
166 21 62 2 50
-44 19 -25 17 50
-78 -1 10 31 51
135 7 99 40 51
2 6 41 27 52
-139 -9 -104 -48 52
99 9 -72 -11 53
82 22 106 23 53
-144 1 -19 -42 54
-4 -6 -83 -17 54
160 20 -17 -24 55
-78 24 263 85 55
-36 35 220 56 56
162 11 -40 -16 56
-57 -6 -183 -44 57
-160 -17 -142 -35 57
123 -6 6 -11 58
26 -6 -25 -1 58
-150 0 -166 -32 59
76 -5 -232 -64 59
92 16 -42 -16 60
-145 4 264 35 60
8 13 127 37 61
151 15 -21 21 61
-82 4 -161 -80 62
-69 5 -76 -29 62
154 22 -20 18 63
-25 21 -66 -3 63
-126 9 82 36 64
145 26 113 -9 64
48 2 -150 0 65
-131 32 -100 10 65
74 10 121 -12 66
124 18 220 18 66
-122 4 58 19 66
-7 10 -168 32 67
148 19 -25 12 67
-71 12 175 60 68
-77 11 -80 -38 68
154 8 -139 -16 69
12 30 -28 0 69
-110 30 85 41 70
127 31 33 37 70
76 18 -138 -39 71
-137 3 -206 -49 71
38 3 12 -21 72
134 31 226 104 72
-83 55 224 137 73
7 54 -114 22 73
148 36 -147 23 73
-40 27 194 -12 74
-32 38 393 94 74
198 70 246 75 75
42 25 -149 1 75
-148 -11 -188 -47 76
19 -59 -177 -80 76
13 -55 -216 -123 77
-179 -47 -159 -63 77
-17 -57 -29 -23 78
118 -22 -44 -16 78
-132 -26 -160 -56 78
-74 -10 97 30 79
125 4 305 65 79
-50 15 162 34 79
-19 87 -73 56 80
191 71 -174 35 80
71 45 37 18 81
-152 -13 140 15 81
39 -9 52 20 81
92 0 -97 -15 82
-138 -30 5 -83 82
-9 -24 21 -94 83
116 5 79 19 83
-104 7 -67 2 83
-69 10 -143 -21 84
150 9 -198 -23 84
21 20 -103 -38 84
-119 8 96 82 85
160 22 197 62 85
65 10 -5 -4 86
-179 12 -40 -8 86
121 62 59 30 86
144 55 192 81 87
-113 26 -4 29 87
-12 4 -50 -7 87
160 16 -30 14 88
-87 32 27 -28 88
-92 5 -146 4 88
156 7 -123 -9 89
-18 11 7 12 89
-148 -8 106 -23 89
104 0 129 -14 90
67 -1 -94 1 90
-160 -5 -63 -25 90
30 14 41 16 91
172 46 52 59 91
-91 32 -147 -6 91
-30 4 -280 -22 92
163 -8 144 22 92
-63 18 367 52 92
-101 32 207 30 93
155 10 -229 -63 93
16 7 -173 -5 93
-147 5 161 25 94
89 17 193 56 94
89 3 -116 -51 94
-148 -11 -277 0 95
11 5 2 21 95
136 25 74 22 96
-79 11 -27 -44 96
-14 25 -243 -49 96
175 59 -11 33 97
-16 52 226 85 97
-123 20 258 20 97
118 -17 -143 -128 98
22 -17 -227 -80 98
-156 4 121 114 98
80 28 115 25 99
126 13 -247 -57 99
-160 -13 -174 14 99
15 27 327 51 100
144 16 336 64 100
-83 23 194 26 100
-64 -9 -249 -55 101
159 -11 -315 -40 101
-32 -15 -204 -41 101
-172 -21 -120 -10 102
133 10 192 17 102
63 10 -16 -35 102
-153 -3 -112 -32 102
79 16 175 75 103
120 36 298 81 103
-126 19 169 19 103
-3 3 -129 -12 104
135 14 -172 -5 104
-56 68 82 9 104
-83 47 18 12 105
183 45 -122 -30 105
14 40 31 17 105
-130 18 -123 -35 106
96 2 -215 -39 106
66 10 287 92 106
-151 5 203 16 107
47 -14 -232 -46 107
128 -26 -291 -22 107
-118 4 36 -20 107
-47 13 308 52 108
185 34 166 75 108
-70 -33 -462 -118 108
-111 -4 -217 -38 109
140 38 432 86 109
20 26 298 86 109
-129 3 109 38 110
99 -29 -462 -146 110
110 -4 -291 -54 110
-142 33 306 97 110
25 36 240 60 111
174 44 102 55 111
-98 -17 -573 -128 111
-91 -50 -356 -14 112
133 24 558 115 112
-27 26 380 79 112
-109 15 87 40 113
125 -95 -823 -184 113
52 7 64 53 113
-170 42 526 143 114
89 81 493 127 114
112 27 -142 -47 114
-147 -50 -686 -194 114
-25 -17 -202 -43 115
154 45 406 69 115
-84 64 279 99 115
-62 54 150 54 116
152 -29 -500 -168 116
-23 34 -117 8 116
-145 18 137 27 116
144 52 157 73 117
55 -48 -775 -241 117
-147 -44 -516 -113 117
42 34 588 132 118
160 75 645 180 118
-101 79 215 54 118
-28 -55 -663 -200 118
161 -39 -210 -116 119
-68 12 328 102 119
-73 48 338 88 119
173 35 -89 72 119
-10 -51 -739 -171 120
-106 -24 -65 -58 120
87 -1 366 86 120
84 50 363 19 120
-189 -24 -294 -103 121
79 5 -278 -52 121
142 41 204 -3 121
-106 73 413 141 121
-46 10 -134 -34 122
184 31 -227 28 122
-46 82 183 109 122
-106 30 49 -2 122
132 24 -97 -40 123
11 -2 -24 -30 123
-149 6 -108 -41 123
74 -83 -417 -140 123
96 -51 -250 -150 123
-134 33 246 58 124
-10 9 295 43 124
191 26 53 79 124
-106 -28 -221 -7 124
-70 -72 -92 -19 124
134 -4 318 96 125
-11 -82 -143 -53 125
-96 -32 -391 -138 125
123 19 109 12 125
43 98 479 135 125
-140 135 365 101 125
90 59 32 52 126
125 -3 -347 -80 126
-145 -1 -160 -88 126
-11 32 120 42 126
160 -10 4 -3 126
-82 -3 -32 -5 126
-67 -1 -46 15 126
152 -11 -19 -18 126
-7 5 36 8 126
-127 -33 -93 3 126
144 31 -181 14 126
71 16 -117 -1 126
-159 -1 135 4 126
50 -8 95 7 126
125 9 56 1 126
-125 -1 -89 -22 126
-11 37 90 30 126
179 28 108 30 126
-62 33 136 38 126
-66 16 -123 -64 126
152 -18 -158 -34 126
-10 16 242 116 126
-131 13 103 61 126
109 12 120 57 126
93 8 -94 -31 126
-160 16 -86 -30 125
43 27 -4 15 125
152 16 -5 -15 125
-119 5 -45 -24 125
-42 16 10 -5 125
161 22 -35 1 125
-55 23 -75 8 124
-105 25 -11 -1 124
144 18 -28 7 124
31 23 12 -32 124
-142 7 -95 -33 123
84 7 -11 -41 123
106 4 94 47 123
-155 -29 151 12 122
10 -32 51 -4 122
133 -40 -73 -35 122
-103 -24 -35 18 121
-62 -4 14 -19 121
162 6 38 30 120
-27 15 -15 -15 120
-112 -12 -56 -20 120
128 -3 -41 -6 119
42 -4 -44 -25 119
-147 7 -9 -8 118
71 6 30 -13 118
130 14 -75 -1 118
-147 3 -43 -37 117
-28 11 19 21 117
175 24 79 22 116
-82 25 59 3 116
-64 13 -170 -43 115
162 13 -139 -16 115
-19 27 101 11 114
-144 32 143 38 114
120 36 119 29 113
68 21 -42 -8 113
-154 5 -86 -27 112
51 12 -16 -11 112
138 25 17 7 111
-121 13 -26 -5 111
-25 7 -4 -9 110
164 20 -9 1 110
-74 15 -53 -3 109
-98 11 -90 -12 108
161 21 0 14 108
6 6 -52 -17 107
-144 17 57 -2 107
132 15 0 62 106
94 15 73 28 105
-138 12 64 5 105
30 15 -7 -17 104
138 17 -33 -14 104
-116 7 -63 -22 103
-46 4 29 16 102
163 13 46 -7 102
-49 15 -26 4 101
-111 -3 -68 -14 100
135 4 -33 4 100
18 11 53 14 99
-153 1 39 13 99
102 1 -14 -8 98
140 1 -260 -71 98
-131 -2 -134 8 97
12 20 206 71 96
151 26 184 55 96
-98 8 140 32 95
-61 -7 -92 -23 94
174 1 -181 -38 94
-31 5 30 36 93
-135 2 58 42 93
133 5 61 31 92
54 8 47 19 92
-148 0 -70 -28 91
60 0 -79 -9 91
116 11 -28 0 90
-140 10 -19 -1 90
-7 2 -30 -17 89
162 12 -49 -7 89
-64 9 -82 -7 89
-80 16 3 -1 88
140 12 58 6 88
9 10 60 8 87
-134 4 7 -9 87
128 9 -59 -21 86
72 13 -59 -1 86
-158 11 21 7 85
47 11 -27 -4 85
139 21 56 10 84
-125 2 38 29 84
-28 23 28 29 83
167 18 63 45 83
-53 16 -23 -10 82
-100 5 -65 -32 82
166 15 -17 9 81
6 11 -6 10 81
-138 6 -62 -11 80
116 6 -193 -13 80
81 1 -17 1 79
-142 8 144 -1 79
26 -2 92 -24 78
142 4 5 -25 78
-112 7 -46 -3 77
-59 8 90 41 76
160 19 102 40 76
-48 4 -51 -5 75
-128 3 -105 -23 75
148 17 4 11 74
57 22 -5 -6 73
-128 15 -10 6 73
92 7 -31 -13 72
92 16 -73 -38 72
-152 8 -101 -12 71
15 15 21 23 70
161 20 77 26 70
-86 19 38 9 69
-59 11 -4 4 69
153 12 -31 4 68
-19 9 48 11 67
-133 5 136 29 67
117 6 65 1 66
53 5 6 -5 65
-143 0 -78 -17 65
60 3 -103 -31 64
102 6 -51 -5 63
-126 -2 19 -29 63
-27 -2 40 3 62
144 -1 36 -2 62
-85 -16 -102 -29 61
-104 -33 -142 -32 60
135 -5 25 17 60
-2 -12 178 64 59
-112 -10 107 18 59
108 -11 -16 -5 58
65 -4 -107 -32 57
-117 21 -118 -5 57
51 20 27 20 56
120 22 37 5 56
-109 21 3 -11 55
-38 14 -74 -17 55
162 27 -92 10 54
-51 23 11 7 54
-93 29 147 29 53
135 17 79 15 53
18 22 -29 6 52
-128 13 -20 7 52
91 23 19 14 51
92 30 49 18 51
-119 21 5 2 50
32 17 -47 11 50
145 21 -57 3 49
-94 16 -79 0 49
-51 18 3 7 48
149 19 95 25 48
-35 28 72 17 47
-106 9 -21 -14 47
136 17 -72 -3 46
40 16 -39 -9 46
-144 2 -25 -4 45
89 11 -60 1 45
99 7 -104 -23 44
-136 1 -8 21 44
-3 32 174 22 43
134 17 203 56 43
-78 29 82 11 42
-63 17 -64 -8 42
169 28 -78 13 41
-4 12 14 19 41
-106 15 9 13 40
132 15 -8 20 40
61 18 -23 14 40
-138 3 -36 -3 39
63 9 -32 -2 39
106 16 -28 -6 38
-123 7 -17 -5 38
-17 2 -27 -7 38
146 4 -25 -4 37
-80 -3 -31 -12 37
-103 -8 -34 -19 37
133 6 -29 -14 36
-9 28 -22 -12 36
-125 6 -2 -6 36
129 27 9 14 35
70 8 44 1 35
-139 8 -11 -10 34
25 6 -36 -16 34
135 23 -37 13 34
-89 20 30 20 33
-24 17 85 12 33
149 17 58 11 33
-35 32 24 14 32
-84 7 -12 12 32
132 18 -23 24 31
14 14 -22 0 31
-180 -5 -54 -32 31
125 33 17 20 30
84 2 -15 -11 30
-132 0 -16 -17 29
-3 -20 -37 -27 29
117 16 -6 15 29
-128 -5 -46 -12 28
-49 18 -8 14 28
182 41 13 33 27
-15 38 13 22 27
-95 31 31 29 27
148 31 7 13 26
46 21 10 5 26
-121 33 21 22 25
82 13 4 -2 25
109 7 -3 -1 25
-159 -15 -18 -13 24
4 7 -2 0 24
135 22 1 8 24
-74 16 -10 2 23
-67 3 -9 -2 23
152 12 -4 6 23
-11 14 -3 4 22
-113 8 -10 -1 22
114 4 -4 3 22
39 1 -14 -14 21
-126 6 -5 -17 21
42 -7 -9 -11 21
124 23 23 21 21
-120 5 0 5 20
10 32 51 71 20
165 32 0 -3 20
-12 67 68 84 20
25 123 69 79 19
490 359 349 362 19
525 534 479 513 19
-10 199 173 192 19
112 -86 -97 -89 19
-288 -380 -448 -375 19
-525 -251 -290 -252 19
-164 -212 -254 -214 19
-57 -268 -275 -272 19
-343 -169 -165 -184 19
-206 -85 -91 -105 19
159 -25 -28 -40 18
-41 -6 -12 -31 18
-161 -13 -26 -37 18
114 -11 -1 -12 18
27 -7 -24 -27 18
-147 8 0 2 18
118 46 15 20 18
129 37 58 60 18
-68 71 44 48 17
78 69 63 62 17
151 21 -3 0 17
-101 -1 -15 -4 17
-90 -27 -35 -45 17
161 25 12 23 17
-27 21 11 23 17
-79 30 7 26 17
140 21 11 15 17
71 47 21 25 16
-136 15 14 20 16
113 36 0 10 16
131 31 -1 6 16
-112 34 5 17 16
63 71 32 47 16
165 31 18 26 16
-87 19 15 16 16
-77 4 -12 -6 15
164 20 -5 1 15
-59 -14 -21 -14 15
-176 -31 -46 -37 15
110 -19 -35 -26 15
42 6 -29 -24 14
-187 -15 -29 -24 14
37 -44 -32 -27 14
108 14 3 5 14
-117 44 25 31 14
23 50 -24 -39 13
215 47 33 51 13
-41 43 -2 18 13
-101 8 -1 10 13
165 5 -19 3 13
-11 -8 -8 3 12
-142 -3 -20 -9 12
106 0 0 -2 12
106 26 14 19 12
-141 15 5 10 12
30 11 8 8 12
131 -3 -17 -13 11
-116 12 -7 -4 11
-40 23 7 10 11
172 18 -2 1 11
-39 22 3 10 11
-132 -6 -20 -27 10
139 34 6 17 10
8 14 -36 -30 10
-152 10 -15 -9 10
111 31 51 65 10
114 19 -29 -27 9
-130 -8 12 13 9
37 15 -2 11 9
168 9 27 27 9
-98 15 -24 -13 9
-52 9 -9 -6 9
175 26 15 16 9
-41 14 11 20 9
-122 2 -5 -6 9
132 7 -5 0 9
33 3 -4 -5 8
-155 -2 -10 -3 8
64 -6 -12 -11 8
104 5 15 -13 8
-126 16 12 24 8
2 13 -2 9 8
174 35 -6 12 8
-92 -10 -47 -59 8
-84 9 26 22 8
176 32 27 25 8
-23 9 16 50 8
-124 23 -8 9 8
117 15 -14 -4 7
76 18 3 19 7
-149 16 0 7 7
58 9 -11 -2 7
125 19 5 6 7
-118 17 8 9 7
-35 -6 -20 -11 7
153 9 -10 -6 7
-82 0 -10 -4 7
-128 -29 -37 -26 7
167 17 0 11 7
6 15 0 6 7
-169 -12 -8 -9 7
109 4 -8 -6 7
90 19 -2 9 7
-155 20 -2 8 7
48 13 -4 4 7
137 6 -15 6 7
-129 5 -14 8 7
-32 23 -5 9 7
174 20 -2 4 7
-50 14 9 8 7
-113 10 -8 12 7
161 22 -9 -4 7
34 12 -22 -2 7
-147 15 -11 -11 7
96 6 -7 1 7
100 12 -28 -7 7
-140 10 -86 -13 7
11 8 -101 -6 7
161 16 31 23 7
-102 6 140 32 7
-79 9 106 -12 7
170 12 6 -11 7
-30 14 -31 10 8
-118 17 16 11 8
141 16 41 14 8
63 22 22 5 8
-145 16 -75 -4 8
78 15 -42 6 9
128 21 -16 6 9
-145 9 62 11 9
-16 0 62 10 9
160 11 27 9 10
-83 4 -28 -11 10
-81 8 -82 -23 10
166 16 -78 -19 10
0 13 -110 -8 11
-118 9 -149 -25 11
130 6 -226 -27 11
60 7 -18 14 12
-161 9 307 104 12
63 16 332 45 12
149 28 208 32 12
-88 29 -54 -17 13
8 27 -100 -8 13
188 26 -34 24 14
-48 28 27 6 14
-96 16 73 25 14
157 11 23 5 15
8 7 -54 -12 15
-147 -2 -99 -31 16
101 3 -30 -8 16
92 10 -68 -19 17
-144 16 -150 -44 17
32 10 -164 -33 18
137 13 -46 16 18
-122 5 -53 25 19
-50 5 38 3 19
159 0 173 28 20
-48 12 210 -1 21
-109 10 132 44 21
148 17 -19 20 22
50 20 -24 26 22
-126 9 64 13 23
93 9 25 -10 23
108 5 -115 -52 24
-137 -12 -221 -68 25
-12 -12 -148 -15 25
135 -12 11 -2 26
-113 -3 98 33 26
-78 -8 -5 18 27
143 -12 -93 -14 27
-26 7 -62 -1 28
-112 4 25 -14 29
102 10 73 -14 29
34 15 49 21 30
-131 8 42 14 30
60 12 -10 -11 31
126 20 -91 -26 32
-125 12 -53 -33 32
-31 9 98 51 33
143 24 109 47 33
-74 19 25 10 34
-70 20 -146 -35 34
145 18 -127 -3 35
0 26 -94 -1 35
-124 15 -106 -19 36
105 3 -95 -17 36
50 -6 39 19 37
-160 8 241 61 38
28 7 117 12 38
104 10 -40 -26 39
-115 8 -127 -33 39
-16 9 19 11 40
154 14 137 39 40
-57 20 114 58 41
-95 18 -34 -3 41
131 17 -17 2 42
18 25 -99 2 42
-126 15 -117 -17 43
118 13 -77 -29 43
96 29 12 25 44
-118 1 59 36 44
43 15 -102 14 44
125 22 -47 -15 45
-97 13 69 -1 45
-23 18 179 41 46
142 18 -8 15 46
-33 19 -170 -51 47
-118 -12 -114 -7 47
109 9 159 50 48
7 -8 329 66 48
-153 -9 149 4 49
62 -2 -54 -45 49
76 1 -223 -66 49
-128 5 -185 -53 50
-3 -3 -11 -10 50
162 9 42 -3 51
-69 2 -52 -25 51
-50 13 -5 0 52
165 20 -36 -7 52
-30 13 -13 40 53
-114 -3 -155 -9 53
126 10 -60 -1 54
37 9 142 30 54
-152 15 190 -4 54
51 17 145 40 55
107 15 -14 2 55
-122 11 -169 -63 56
-15 10 -153 -43 56
148 14 -20 0 57
-78 8 121 57 57
-81 7 55 8 58
152 8 -101 -16 58
0 12 -168 -28 58
-134 12 41 73 59
123 17 202 11 59
73 9 24 -24 60
-151 2 -193 -133 60
47 -2 -121 -43 60
135 24 222 127 61
-103 20 182 75 61
-7 15 -81 -1 62
149 9 -279 -70 62
-71 4 57 17 63
-110 0 124 39 63
144 16 -77 -6 63
26 4 -97 -63 64
-139 4 21 -47 64
93 7 85 -5 65
87 14 -3 15 65
-121 21 -187 -22 66
27 25 25 65 66
129 15 130 63 66
-108 15 12 28 67
-50 2 -100 0 67
161 20 -101 -43 68
-29 24 114 -28 68
-96 14 154 10 69
128 18 -15 -20 69
28 19 41 63 70
-131 22 33 32 70
89 18 63 18 70
105 15 -46 -18 71
-122 -3 -242 -49 71
-3 -4 -247 -43 72
146 18 57 18 72
-85 15 129 4 73
-73 22 -12 -17 73
165 16 -91 -18 73
-8 27 48 83 74
-97 20 237 71 74
130 27 189 57 75
51 23 -179 -46 75
-127 22 -142 -21 76
72 15 141 56 76
154 59 88 63 76
-84 48 10 30 77
5 27 -164 -65 77
176 43 25 40 78
-61 34 231 116 78
-105 -3 -111 -23 79
159 15 -41 9 79
-22 -8 30 -9 80
-185 -29 48 -5 80
57 -43 -163 -69 80
4 -74 -366 -134 81
-209 -49 -143 -115 81
5 -29 205 -3 82
101 -10 194 27 82
-144 -7 -118 -43 83
-63 0 -163 9 83
160 5 110 19 83
-51 21 205 34 84
-96 19 -26 -12 84
164 15 -317 -47 85
42 14 -24 -19 85
-152 17 236 40 86
110 21 115 41 86
93 16 17 34 86
-146 13 -11 23 87
17 31 124 49 87
171 25 -227 -43 88
-107 3 -313 -8 88
-52 0 78 -25 88
172 22 183 25 89
-34 23 207 32 89
-96 9 -253 -49 90
181 30 -207 -8 90
50 39 202 63 90
-92 73 197 103 91
96 40 -15 -22 91
137 4 -155 -32 92
-160 -13 -75 -49 92
-13 -9 96 -12 92
155 7 -124 -27 93
-112 4 -155 -50 93
-57 -12 -90 -38 94
160 25 247 109 94
-38 12 156 57 94
-129 -7 -24 -36 95
117 0 -137 -85 95
39 -4 -9 -25 95
-152 29 150 66 96
64 17 104 56 96
123 -1 -271 -73 97
-135 -20 -356 -35 97
-21 0 257 64 97
156 11 243 40 98
-25 30 -43 -33 98
-108 -11 -544 -76 98
202 62 60 19 99
33 42 372 89 99
-119 36 278 30 99
120 4 -228 -3 100
57 -28 -482 -129 100
-168 -8 64 83 101
13 14 426 21 101
140 47 234 76 101
-112 36 14 12 102
-45 1 -348 -62 102
134 17 -74 -20 102
-66 22 204 21 103
-100 24 201 23 103
140 18 -135 -45 103
28 1 -344 -103 104
-137 -8 -90 -10 104
74 13 54 23 105
110 14 92 54 105
-137 -2 64 36 105
22 -15 -297 -91 105
132 19 -24 8 106
-74 28 166 35 106
-41 31 146 13 106
189 14 -52 54 107
-29 2 26 51 107
-141 12 109 -33 107
130 23 263 44 107
62 24 -56 -16 108
-166 -26 -337 -43 108
79 -10 -37 -20 108
124 16 200 47 109
-147 12 67 19 109
-15 -27 -277 -104 109
102 -14 -170 -44 110
-77 6 168 96 110
-70 17 176 46 110
198 -1 -227 -74 110
-10 2 -248 -24 111
-160 -11 109 13 111
131 40 284 87 111
76 29 169 1 111
-149 20 -166 3 112
55 6 -96 23 112
126 15 160 55 112
-143 9 104 2 112
-4 -1 -137 -105 112
165 -19 -198 -21 113
-96 24 179 61 113
-88 27 129 29 113
184 15 -125 -74 114
-22 -16 -294 -28 114
-144 33 17 101 114
112 29 304 76 114
79 23 147 55 114
-104 -17 -194 -45 115
44 1 -44 47 115
145 38 267 111 115
-89 46 89 -5 115
-34 38 -75 5 116
147 28 -49 77 116
-47 15 112 28 116
-136 -30 157 -7 116
154 -18 -120 -31 116
15 -33 -283 -20 117
-138 9 52 72 117
104 24 269 13 117
93 18 141 -5 117
-170 -51 -394 -154 118
19 -5 -242 1 118
114 -4 39 12 118
-89 14 127 97 118
-43 48 88 33 118
177 -10 -307 -155 119
-41 10 -52 -19 119
-118 7 293 94 119
134 20 103 66 119
53 25 74 32 119
-113 79 -119 7 120
61 25 -127 -32 120
99 39 -17 59 120
-123 38 289 34 120
22 16 129 47 120
134 -8 -84 -66 121
-105 -91 -473 -103 121
-68 -8 96 41 121
152 36 319 97 121
3 39 224 63 121
-141 -80 -547 -168 122
99 -127 -350 -103 122
72 -7 204 20 122
-125 44 225 36 122
41 -56 -384 -48 123
70 -96 -384 -38 123
-98 65 705 153 123
-4 89 296 73 123
122 -23 -386 -74 123
-9 67 74 80 123
-113 47 222 31 124
158 146 785 196 124
36 37 -158 -73 124
-152 -60 -433 -96 124
90 0 42 7 125
81 9 -89 -23 125
-155 -53 -241 -60 125
27 -14 -20 -1 125
138 11 -21 -19 126
-137 -33 -254 -37 126
-46 -28 -242 -105 126
168 39 205 111 126
-66 25 156 -20 126
-122 -34 -77 13 126
148 16 -16 -65 126
23 5 135 42 126
-146 76 194 59 126
96 13 -34 13 126
119 -1 -134 -78 126
-148 39 44 26 126
32 49 83 62 126
157 15 -71 -15 126
-72 21 -6 31 126
-61 1 -7 -26 126
192 41 49 54 126
-14 23 52 5 126
-149 10 0 -1 126
141 34 24 17 126
57 7 -70 -5 126
-165 -17 -51 -19 126
70 31 6 -3 126
128 23 -51 -5 126
-136 24 -91 -3 126
-3 15 31 -16 126
166 25 24 7 126
-81 28 -56 -5 126
-86 16 -148 20 126
156 10 80 -1 126
-5 10 0 -10 126
-130 26 22 -17 126
126 22 36 -8 126
79 28 101 32 126
-149 24 122 12 125
56 28 -12 21 125
139 13 -189 -56 125
-119 -1 -44 -3 125
-28 36 126 34 125
157 19 80 28 124
-52 28 36 -5 124
-100 2 -112 -29 124
152 6 -128 -32 123
-4 34 -10 -49 123
-141 10 140 29 123
101 20 89 25 122
83 11 97 39 122
-149 -14 -84 -28 122
24 -26 -190 -54 121
130 16 -34 0 121
-109 10 97 16 121
-37 13 65 0 120
162 22 26 0 120
-44 20 -58 -2 120
-113 12 -37 -15 120
