40 7 1 2 0
49 7 3 2 0
77 7 4 2 0
77 7 4 3 0
90 8 23 16 0
101 8 23 17 0
103 9 23 17 0
113 9 23 17 0
115 9 23 17 0
123 13 27 21 0
129 18 28 22 0
126 19 27 22 0
122 18 28 23 0
124 18 28 23 0
118 16 15 13 0
121 18 18 19 0
119 18 19 21 0
117 17 19 20 0
119 16 19 20 0
113 15 15 19 0
107 9 14 19 0
107 8 14 19 0
103 8 14 18 0
106 8 14 19 0
102 8 14 19 0
101 8 12 14 0
102 8 8 11 0
99 8 7 11 0
103 7 6 11 0
101 8 10 11 0
102 8 10 10 0
106 8 10 10 0
102 8 10 10 0
107 9 11 9 0
106 9 12 10 0
103 8 11 9 0
106 8 11 8 0
101 8 11 8 0
99 17 16 11 0
99 15 12 10 0
98 16 11 9 0
98 15 10 9 0
94 15 10 9 0
94 15 10 9 0
96 15 10 9 0
93 17 12 12 0
97 17 13 13 0
96 16 12 12 0
103 10 9 11 0
105 15 11 12 0
100 15 12 12 0
106 15 13 15 0
106 15 12 15 0
105 17 16 18 0
107 19 17 23 0
103 18 19 23 0
103 18 18 22 0
104 18 18 22 0
99 18 18 22 0
105 17 18 22 0
103 18 18 23 0
102 17 18 20 0
103 17 17 18 0
97 16 15 16 0
101 14 13 11 0
100 13 11 9 0
98 13 11 10 0
102 13 11 11 0
99 13 13 16 0
98 10 12 15 0
96 8 10 15 0
93 7 10 17 0
97 8 10 17 0
94 8 11 17 0
96 8 11 17 0
96 8 11 18 1
95 9 11 18 1
99 9 12 21 1
96 8 10 17 1
94 8 18 22 1
98 11 19 24 1
98 13 23 24 1
95 19 26 26 1
94 23 38 33 1
105 29 38 35 1
104 29 40 40 1
92 31 40 42 1
103 29 39 44 1
103 27 34 40 1
93 21 34 40 1
94 29 28 31 1
93 36 43 34 1
109 45 53 46 1
111 56 57 55 1
96 60 65 64 1
118 66 69 69 1
123 63 67 69 1
96 59 63 64 1
102 54 55 60 1
109 45 41 49 1
96 39 31 42 1
89 33 26 30 1
89 34 25 29 1
98 35 29 35 1
102 44 42 45 1
96 48 49 52 1
101 56 54 55 1
114 59 54 56 1
106 52 47 46 1
93 41 38 35 1
101 31 31 31 1
99 26 20 20 1
92 27 14 13 1
96 23 10 11 1
94 23 10 11 1
94 24 10 14 1
98 23 6 12 1
91 22 6 10 1
90 22 9 12 1
89 17 10 12 1
90 18 10 14 1
91 18 10 14 1
85 18 13 18 1
86 18 13 18 1
87 17 13 19 1
83 14 13 15 1
84 14 15 14 1
82 14 16 13 1
81 15 16 13 1
82 18 19 20 1
78 18 19 19 1
86 19 20 20 1
87 15 17 18 1
88 15 17 18 1
88 20 25 23 1
82 23 26 25 1
90 29 27 28 1
90 28 26 27 1
92 30 28 29 1
94 33 25 27 1
91 33 25 26 2
88 32 24 25 2
89 32 24 25 2
85 32 23 26 2
95 32 21 23 2
98 36 22 25 2
85 34 29 28 2
94 40 37 34 2
105 45 45 43 2
104 45 45 43 2
100 43 42 39 2
99 41 42 41 2
110 45 49 50 2
112 50 53 55 2
109 55 57 59 2
109 53 58 60 2
112 50 56 58 2
109 43 49 50 2
90 28 33 33 2
100 24 24 27 2
99 20 20 25 2
90 30 23 29 2
97 32 27 33 2
94 32 27 33 2
99 33 29 38 2
100 33 30 40 2
98 32 33 43 2
103 36 34 40 2
103 39 39 44 2
94 43 42 50 2
98 43 40 47 2
98 34 39 45 2
101 37 37 42 1
101 42 47 57 1
94 44 47 56 1
106 47 48 55 1
108 48 50 54 1
95 42 49 53 1
94 37 42 50 1
97 22 34 37 0
100 17 31 33 0
99 23 37 34 0
88 31 49 58 0
99 33 47 54 0
104 35 48 58 0
95 33 49 58 0
91 30 40 55 0
100 28 34 56 0
96 23 22 43 0
86 17 22 42 0
102 26 25 42 0
102 33 29 35 0
95 34 34 33 0
109 40 42 36 0
112 46 58 63 0
104 46 56 60 0
105 43 52 53 0
106 40 47 53 0
115 42 47 57 0
117 50 60 66 0
107 72 80 84 0
141 95 101 105 0
159 107 115 121 0
141 113 125 137 0
132 103 103 109 0
148 94 98 100 0
129 79 82 84 0
98 57 63 67 0
100 43 45 55 0
102 36 38 51 0
111 45 46 55 0
104 46 58 62 0
97 46 56 59 0
119 52 51 49 0
116 52 52 50 0
95 51 55 55 0
124 53 55 57 0
125 53 54 58 0
114 53 52 55 0
122 47 44 49 0
123 45 40 43 0
116 37 40 40 0
111 25 29 29 0
114 25 26 29 0
114 19 14 19 0
110 19 15 18 0
105 17 11 15 0
107 13 10 13 0
104 14 13 18 0
108 14 14 20 0
106 13 15 19 0
103 13 31 32 0
106 9 34 34 0
103 9 35 36 0
109 12 36 38 0
109 14 36 38 0
104 16 37 40 0
108 16 38 40 0
105 14 36 42 0
108 16 38 43 0
108 17 40 44 0
105 15 31 41 0
110 16 30 41 0
105 15 31 37 0
105 15 40 46 0
107 14 44 46 0
105 11 45 51 0
110 13 49 54 0
109 14 51 51 0
102 13 49 52 0
108 14 48 51 0
107 14 43 45 0
105 12 43 43 0
105 10 38 42 0
105 11 33 34 0
103 13 29 37 0
98 11 26 28 0
105 14 19 25 0
106 13 11 21 0
100 13 10 20 0
108 13 11 20 0
107 17 21 30 0
106 16 21 33 0
109 15 21 30 0
107 15 20 31 0
115 16 20 32 0
113 16 19 32 0
111 14 19 32 0
114 15 19 33 0
111 17 18 33 0
116 16 20 33 0
115 13 15 23 0
114 15 14 17 0
119 15 13 17 0
116 15 14 16 0
121 15 15 12 0
123 16 18 17 0
118 16 18 17 0
122 16 18 17 0
120 12 18 17 0
115 11 15 13 0
120 9 14 12 0
114 9 19 15 0
117 8 19 14 0
116 7 19 14 0
110 6 18 18 0
113 5 15 16 0
110 5 14 16 0
113 6 15 16 0
113 7 18 17 0
109 7 17 16 0
111 7 17 15 0
108 7 10 9 0
106 6 8 10 0
108 5 9 10 0
103 5 10 11 0
104 9 14 14 0
102 10 18 19 0
103 11 24 23 0
105 12 25 23 0
101 11 27 23 0
107 11 27 23 0
107 11 27 24 0
105 11 27 24 0
109 11 27 24 0
106 11 27 23 0
110 9 24 21 0
111 9 22 19 0
106 8 11 13 0
113 7 14 20 0
110 9 17 23 0
112 12 17 23 0
114 15 18 24 0
113 19 25 29 0
110 28 36 41 0
111 36 41 43 0
127 43 45 48 0
127 44 44 48 0
118 44 44 47 0
126 44 44 47 0
127 40 37 42 0
118 33 31 39 0
122 23 28 35 0
119 29 29 36 0
134 36 40 41 0
132 38 38 39 0
115 34 35 31 0
127 31 33 27 0
127 26 32 27 0
115 21 31 28 0
119 17 30 27 0
117 15 24 22 0
116 12 24 22 0
115 15 24 19 0
108 16 22 24 0
114 15 22 25 0
111 15 21 25 0
113 14 22 26 0
113 14 21 26 0
113 9 20 23 0
118 10 22 24 0
114 10 23 25 0
117 10 22 26 0
120 9 21 26 0
120 6 18 19 0
121 4 18 18 0
118 5 17 19 0
117 5 16 17 0
121 5 17 19 0
115 3 17 21 0
117 3 15 24 0
117 4 13 23 0
113 4 16 20 0
116 5 15 20 0
110 9 15 22 0
112 9 15 22 0
113 9 16 24 0
108 9 16 27 0
111 9 13 25 0
109 10 12 24 0
110 10 8 19 0
113 9 10 23 0
112 13 21 32 0
115 12 21 30 0
114 10 21 31 0
115 11 20 30 0
119 10 21 31 0
116 10 21 30 0
118 13 26 31 0
117 13 27 33 0
114 13 27 31 0
119 13 28 30 0
114 10 23 22 0
112 12 25 23 0
113 12 26 23 0
108 12 26 24 0
112 13 25 22 0
109 12 26 22 0
113 9 19 17 0
115 9 18 13 0
110 7 18 12 0
113 8 19 15 0
111 10 29 31 0
117 9 24 28 0
122 8 24 29 0
120 8 24 29 0
122 8 24 29 0
122 8 24 29 0
119 7 24 28 0
123 7 24 27 0
119 7 23 25 0
120 7 21 25 0
122 4 5 9 0
113 4 4 8 0
118 5 11 9 0
115 5 12 8 0
117 5 11 9 0
118 7 12 9 0
114 7 13 9 0
119 12 13 8 0
118 12 13 9 0
116 12 14 15 0
120 12 14 16 0
117 11 15 16 0
118 11 12 15 0
118 11 9 15 0
112 11 9 15 0
117 11 9 15 0
113 11 8 15 0
113 6 8 18 0
115 6 8 18 0
113 8 10 19 0
117 8 19 23 0
115 8 18 23 0
114 8 18 22 0
116 7 18 23 0
116 9 18 22 0
122 13 22 32 0
122 15 23 32 0
122 15 23 31 0
126 15 23 31 0
121 14 22 29 0
122 14 16 24 0
123 14 16 28 0
121 14 16 28 0
127 14 18 28 0
121 13 19 31 0
120 10 15 23 0
122 7 14 23 0
117 8 21 31 0
122 8 21 31 0
120 8 21 32 0
122 9 20 33 0
125 9 20 31 0
122 9 21 32 0
126 9 22 32 0
126 10 22 28 0
122 10 23 31 0
132 13 21 30 0
128 12 17 25 0
127 11 21 26 0
129 13 21 25 0
124 13 22 26 0
128 13 22 24 0
124 13 24 23 0
121 14 24 25 0
126 14 19 24 0
124 14 19 21 0
121 8 19 21 0
119 6 17 15 0
120 5 16 15 0
124 5 16 15 0
120 5 11 10 0
122 6 14 14 0
123 6 12 15 0
121 6 9 13 0
122 6 8 12 0
117 7 6 11 0
115 11 10 13 0
116 12 11 13 0
111 12 12 17 0
117 13 12 17 0
116 15 13 19 0
115 14 13 19 0
120 15 13 18 0
115 15 13 18 0
122 16 13 19 0
121 16 13 19 0
124 11 11 18 0
129 11 11 18 0
123 9 9 13 0
120 10 11 14 0
119 11 12 12 0
114 11 12 9 0
118 10 18 11 0
115 12 18 12 0
115 13 20 18 0
117 13 22 25 0
112 13 22 25 0
117 13 22 29 0
115 13 23 29 0
117 11 21 29 0
121 9 21 29 0
119 9 21 29 0
121 9 17 30 0
120 6 16 30 0
116 2 13 24 0
121 2 9 20 0
117 2 13 22 0
120 4 16 20 0
122 5 15 20 0
118 5 15 20 0
121 6 15 20 0
118 6 15 21 0
118 6 15 21 0
122 7 14 21 0
116 7 12 21 0
118 8 12 17 0
116 9 10 16 0
113 8 8 11 0
116 8 8 11 0
113 8 8 12 0
118 9 9 10 0
118 11 10 13 0
117 10 15 16 0
122 10 16 20 0
120 11 16 20 0
121 11 17 21 0
123 10 17 20 0
120 10 16 20 0
125 10 16 20 0
122 10 17 20 0
122 7 18 20 0
124 7 17 17 0
118 5 13 18 0
121 6 14 25 0
120 6 15 25 0
119 6 15 26 0
122 7 14 28 0
118 7 17 27 0
119 6 17 27 0
119 6 17 28 0
115 6 17 28 0
118 7 17 28 0
116 10 19 29 0
117 9 17 16 0
119 9 14 16 0
116 9 15 17 0
119 9 16 15 0
117 9 12 13 0
116 8 13 14 0
120 9 12 14 0
117 9 13 14 0
122 7 11 14 0
120 4 11 15 0
117 4 12 15 0
121 4 12 14 0
117 4 12 13 0
119 4 11 13 0
120 4 11 13 0
116 4 10 12 0
120 4 11 11 0
115 3 10 11 0
118 5 11 11 0
122 10 13 16 0
116 10 12 21 0
121 10 12 22 0
120 10 13 22 0
120 12 13 22 0
124 12 12 22 0
121 12 12 22 0
120 13 12 22 0
120 14 13 22 0
119 15 15 22 0
119 12 13 15 0
115 12 13 11 0
118 12 12 10 0
120 13 11 10 0
115 9 11 10 0
119 8 10 8 0
117 17 14 10 0
125 18 18 13 0
126 19 17 13 0
118 17 15 14 0
127 15 13 16 0
126 15 14 16 0
125 15 13 16 0
130 13 13 14 0
127 13 13 14 0
130 13 13 13 0
130 11 12 14 0
126 9 11 13 0
131 9 11 13 0
128 10 11 11 0
127 8 11 7 0
129 6 9 10 0
122 6 8 11 0
127 6 7 10 0
125 6 7 10 0
123 4 7 10 0
125 4 6 9 0
120 5 7 13 0
124 5 7 14 0
123 3 8 14 0
121 3 9 16 0
125 4 9 12 0
121 5 8 12 0
122 5 8 13 0
122 5 9 12 0
119 6 9 12 0
124 6 9 11 0
121 4 9 10 0
122 4 9 10 0
124 5 8 10 0
117 3 8 8 0
123 4 8 8 0
121 5 9 9 0
122 10 9 9 0
125 11 9 12 0
120 10 8 12 0
124 10 9 11 0
124 10 9 11 0
121 10 10 12 0
127 9 9 12 0
124 9 9 12 0
124 8 8 12 0
126 8 8 12 0
121 8 10 12 0
127 7 9 11 0
124 8 9 10 0
122 8 9 14 0
125 8 9 12 0
121 9 9 13 0
123 9 10 14 0
122 11 11 17 0
123 13 18 18 0
126 13 18 18 0
120 10 17 18 0
122 10 16 17 0
122 11 17 18 0
120 11 17 17 0
124 11 16 17 0
120 11 19 17 0
123 11 20 16 0
124 9 18 14 0
118 8 13 11 0
122 8 15 14 0
120 8 22 17 0
119 8 22 17 0
122 7 21 15 0
118 8 20 16 0
122 7 20 15 0
121 8 19 15 0
118 8 19 15 0
122 8 19 15 0
117 7 19 15 0
120 7 16 11 0
120 7 6 10 0
118 8 10 14 0
122 8 10 15 0
117 9 13 18 0
116 10 21 25 0
119 9 21 25 0
116 10 27 30 0
121 10 27 29 0
118 10 29 29 0
117 10 29 29 0
119 12 29 29 0
114 11 27 26 0
117 11 27 26 0
117 8 24 23 0
117 9 21 20 0
121 9 21 19 0
116 8 13 13 0
119 8 13 14 0
119 7 11 13 0
116 7 11 14 0
124 8 11 14 0
122 7 16 17 0
122 7 16 18 0
125 6 15 20 0
121 7 17 24 0
125 7 19 28 0
123 7 19 30 0
123 8 19 29 0
128 8 18 29 0
122 7 17 29 0
123 6 17 29 0
123 6 14 29 0
123 8 15 29 0
127 8 15 27 0
123 7 12 22 0
124 7 9 16 0
126 7 9 12 0
121 6 10 13 0
126 7 10 15 0
124 7 9 14 0
122 7 10 15 0
124 7 12 19 0
117 5 10 18 0
120 5 10 19 0
119 5 10 18 0
117 5 10 18 0
121 7 10 20 0
117 7 10 19 0
118 8 10 18 0
118 7 10 17 0
118 7 9 13 0
123 7 7 9 0
121 7 7 9 0
121 7 7 9 0
123 7 6 8 0
123 11 8 10 0
127 9 9 8 0
125 9 11 12 0
124 9 12 12 0
128 9 13 12 0
123 10 14 17 0
127 10 16 19 0
127 10 16 19 0
125 10 16 19 0
129 10 16 20 0
121 5 16 20 0
124 6 15 19 0
124 6 15 19 0
121 7 14 19 0
125 7 14 19 0
122 8 14 18 0
125 10 12 16 0
128 10 12 17 0
123 10 13 17 0
126 10 14 16 0
125 10 12 14 0
121 8 12 14 0
125 8 9 13 0
119 9 13 13 0
121 9 13 13 0
121 9 22 24 0
115 7 22 23 0
119 7 23 23 0
115 7 23 23 0
118 7 22 24 0
120 7 22 25 0
119 7 22 26 0
122 8 22 27 0
120 7 22 28 0
121 7 22 29 0
125 7 8 22 0
120 7 8 22 0
123 7 7 22 0
121 7 8 21 0
119 7 8 20 0
123 7 6 20 0
118 6 5 17 0
122 5 6 8 0
122 5 5 8 0
118 5 7 10 0
122 6 7 10 0
119 6 8 10 0
123 7 11 10 0
124 7 12 11 0
119 6 13 16 0
122 5 14 16 0
120 7 14 16 0
120 6 14 16 0
122 7 14 16 0
119 7 15 15 0
123 7 16 16 0
122 8 15 16 0
118 7 14 16 0
122 8 13 16 0
119 8 11 5 0
124 10 11 7 0
124 9 10 8 0
121 10 11 9 0
125 10 11 9 0
122 10 10 11 0
120 10 9 12 0
123 9 15 20 0
119 9 16 20 0
122 8 15 19 0
120 8 15 19 0
118 5 15 19 0
121 5 16 19 0
117 5 15 17 0
120 5 15 17 0
119 4 15 17 0
120 8 15 16 0
124 8 9 9 0
120 9 7 8 0
123 10 10 14 0
123 10 13 17 0
121 12 15 23 0
125 12 15 23 0
121 12 15 23 0
121 12 16 26 0
123 12 15 25 0
117 10 17 28 0
124 13 17 28 0
123 12 17 28 0
121 12 16 25 0
128 12 13 20 0
123 11 13 17 0
127 11 12 17 0
126 12 11 18 0
124 12 12 16 0
127 12 13 17 0
125 19 15 16 0
123 17 15 16 0
124 17 15 16 0
119 18 14 15 0
121 17 14 15 0
118 18 15 15 0
117 19 16 15 0
120 19 16 15 0
117 19 16 15 0
121 19 14 10 0
118 10 14 6 0
116 10 17 12 0
122 13 17 12 0
118 13 17 12 0
121 12 17 12 0
122 13 16 12 0
120 12 16 14 0
123 10 16 15 0
119 9 16 15 0
122 9 15 14 0
124 10 15 14 0
119 12 12 10 0
123 10 12 12 0
121 9 13 12 0
122 9 11 11 0
126 9 12 13 0
123 12 14 17 0
128 13 16 17 0
128 13 15 17 0
128 14 15 17 0
132 13 16 17 0
128 11 17 18 0
131 11 17 18 0
133 12 16 18 0
126 11 16 16 0
129 11 16 16 0
125 9 14 13 0
124 8 14 13 0
126 8 14 13 0
119 5 13 13 0
121 6 13 13 0
120 5 14 12 0
117 4 14 11 0
120 3 14 12 0
117 5 14 13 0
120 5 13 12 0
120 5 12 13 0
117 5 12 14 0
123 6 11 14 0
120 6 11 13 0
123 6 11 13 0
124 8 8 14 0
120 8 7 12 0
126 8 7 13 0
123 8 7 12 0
122 8 8 12 0
124 8 9 11 0
123 11 8 13 0
126 12 10 14 0
125 14 9 18 0
123 14 9 18 0
127 13 10 19 0
122 13 11 20 0
123 13 11 21 0
124 13 10 22 0
121 13 10 22 0
126 13 10 22 0
120 10 9 21 0
119 8 10 22 0
121 4 11 21 0
117 4 11 21 0
123 7 11 20 0
120 7 17 22 0
118 6 17 20 0
122 6 19 22 0
117 6 19 24 0
121 6 19 23 0
120 8 19 20 0
120 10 18 22 0
126 10 18 22 0
121 10 19 22 0
122 9 17 21 0
122 10 14 22 0
120 10 14 21 0
124 10 11 20 0
121 10 12 19 0
121 10 12 17 0
124 9 9 16 0
118 7 8 12 0
121 7 8 11 0
119 7 8 11 0
121 9 8 11 0
128 11 8 10 0
124 11 9 12 0
128 11 8 12 0
128 14 10 11 0
125 14 10 11 0
129 14 10 11 0
125 14 9 11 0
125 15 9 11 0
127 15 9 11 0
120 13 9 10 0
122 11 9 10 0
119 11 10 11 0
123 14 11 12 0
126 9 13 13 0
123 12 13 14 0
127 12 13 15 0
126 12 13 16 0
126 12 13 15 0
129 12 12 15 0
126 12 13 16 0
128 12 13 16 0
128 13 12 15 0
121 9 11 15 0
127 12 7 13 0
123 10 7 11 0
123 12 9 11 0
125 12 9 11 0
122 12 9 12 0
126 12 10 15 0
122 11 12 13 0
122 11 11 13 0
125 11 11 15 0
121 11 11 15 0
125 11 11 17 0
123 11 12 18 0
123 10 14 19 0
127 11 15 18 0
121 11 14 16 0
124 10 15 18 0
125 11 18 21 0
122 12 18 21 0
126 13 18 21 0
122 13 18 20 0
121 11 18 20 0
122 11 20 25 0
115 11 19 25 0
121 11 19 25 0
119 12 19 25 0
118 12 19 25 0
122 12 16 23 0
119 13 16 22 0
124 12 15 21 0
123 11 16 22 0
120 11 15 21 0
125 11 13 13 0
121 11 11 12 0
122 10 9 12 0
123 8 11 18 0
119 8 16 19 0
123 8 16 20 0
118 4 16 21 0
115 7 16 21 0
118 7 16 22 0
115 9 18 23 0
118 8 18 24 0
115 8 18 25 0
116 8 19 26 0
120 8 17 19 0
115 8 13 18 0
116 8 17 20 0
116 9 19 21 0
117 11 23 26 0
122 11 24 25 0
117 10 21 25 0
119 11 21 25 0
120 12 21 25 0
114 12 20 24 0
123 13 20 23 0
120 13 20 24 0
122 13 19 23 0
124 12 19 21 0
118 10 17 18 0
121 10 19 20 0
120 10 19 17 0
122 14 20 21 0
126 14 20 21 0
122 16 20 22 0
120 15 19 21 0
121 15 19 25 0
118 14 19 25 0
124 13 15 25 0
121 13 14 24 0
120 14 12 23 0
121 14 21 31 0
116 11 20 28 0
119 10 19 27 0
117 8 19 27 0
119 9 22 34 0
122 7 23 31 0
117 6 23 33 0
119 6 24 33 0
119 6 24 33 0
120 6 23 32 0
126 6 15 22 0
119 9 15 23 0
124 9 16 24 0
124 11 17 24 0
119 11 13 14 0
123 12 10 14 0
120 12 9 12 0
119 13 7 13 0
121 12 7 12 0
116 12 7 12 0
121 12 10 9 0
120 12 9 15 0
123 14 15 19 0
127 13 15 19 0
121 13 15 19 0
124 18 16 20 0
124 20 17 21 0
125 19 19 23 0
132 23 20 23 0
129 24 20 23 0
129 24 26 28 0
129 23 26 26 0
120 22 23 22 0
126 23 23 22 0
124 23 23 22 0
126 17 22 23 0
128 15 21 22 0
123 16 18 17 0
124 11 17 16 0
121 9 17 16 0
121 11 6 9 0
127 12 9 12 0
124 12 9 12 0
125 11 10 14 0
125 12 11 15 0
122 12 25 27 0
124 13 25 27 0
118 13 25 26 0
123 13 28 27 0
125 13 28 27 0
121 9 28 27 0
124 9 28 26 0
121 9 28 26 0
121 9 26 24 0
124 7 26 22 0
120 7 13 6 0
128 8 14 9 0
128 5 15 8 0
127 13 13 11 0
131 13 13 11 0
126 13 13 12 0
127 13 13 13 0
127 13 13 13 0
124 13 13 13 0
129 13 12 12 0
126 13 12 13 0
123 12 11 11 0
124 12 9 11 0
116 7 7 7 0
120 6 7 7 0
118 6 12 13 0
119 6 12 12 0
121 6 12 12 0
117 7 13 14 0
119 7 13 14 0
118 7 13 13 0
115 7 12 15 0
121 7 12 15 0
116 6 12 15 0
117 6 11 15 0
119 6 11 14 0
114 4 11 14 0
119 6 13 16 0
115 6 18 20 0
116 5 18 21 0
119 6 18 21 0
116 6 18 19 0
121 6 18 20 0
119 6 19 24 0
117 6 20 23 0
120 6 19 21 0
116 6 19 21 0
119 6 18 17 0
119 6 12 14 0
115 6 12 14 0
119 5 13 16 0
116 11 14 17 0
115 11 14 17 0
118 12 16 19 0
115 12 16 20 0
120 15 15 20 0
117 14 14 19 0
116 14 15 19 0
119 14 15 19 0
118 15 14 19 0
119 15 16 21 0
118 10 15 19 0
118 9 15 19 0
121 9 11 14 0
116 12 12 13 0
116 12 12 13 0
117 12 12 13 0
114 12 10 12 0
119 12 12 13 0
114 12 12 13 0
120 12 10 11 0
121 11 11 13 0
113 10 9 11 0
118 9 11 15 0
116 10 15 19 0
118 9 15 19 0
120 10 15 20 0
114 11 15 20 0
120 12 15 21 0
119 12 15 21 0
114 10 16 21 0
117 10 18 22 0
114 11 21 23 0
117 11 19 19 0
118 12 18 17 0
113 13 20 20 0
118 13 21 21 0
116 11 22 21 0
114 9 21 21 0
116 6 21 21 0
112 6 20 20 0
117 6 16 15 0
116 8 14 15 0
113 8 13 13 0
119 8 13 13 0
115 7 8 9 0
116 7 9 6 0
116 7 9 8 0
117 11 8 8 0
119 12 17 15 0
113 11 17 16 0
116 12 17 15 0
117 12 17 17 0
114 13 20 19 0
114 14 22 19 0
112 14 22 19 0
115 14 21 20 0
117 14 21 20 0
110 13 22 22 0
115 13 13 17 0
114 14 13 14 0
114 11 13 14 0
117 11 13 15 0
113 10 11 14 0
120 11 12 19 0
120 13 14 23 0
116 12 16 22 0
119 12 16 21 0
115 11 15 21 0
118 11 15 21 0
120 10 16 20 0
117 10 16 21 0
121 10 16 20 0
119 12 18 21 0
115 9 17 14 0
119 8 15 11 0
115 8 13 10 0
119 8 12 10 0
118 8 12 8 0
116 8 12 8 0
120 11 9 8 0
114 10 9 8 0
117 10 8 10 0
117 9 6 10 0
112 9 12 12 0
114 10 12 13 0
110 11 32 35 0
112 11 33 35 0
114 11 33 36 0
108 10 33 35 0
111 8 34 35 0
109 8 34 35 0
108 8 34 35 0
112 7 33 34 0
109 7 30 32 0
113 7 30 29 0
113 8 11 11 0
110 7 8 11 0
114 7 8 8 0
112 8 9 7 0
114 8 9 7 0
115 8 10 7 0
111 8 9 6 0
117 8 10 7 0
115 7 13 9 0
118 8 14 16 0
120 7 14 15 0
115 8 16 15 0
119 8 16 15 0
117 8 15 16 0
117 12 16 16 0
120 11 16 16 0
117 11 16 16 0
118 10 15 16 0
117 10 10 14 0
115 10 10 9 0
121 10 10 9 0
117 10 9 11 0
118 10 9 11 0
120 10 11 10 0
115 7 9 12 0
122 7 9 12 0
119 7 16 21 0
118 8 19 21 0
120 9 20 23 0
114 8 20 23 0
116 8 19 23 0
116 8 19 22 0
115 8 18 22 0
119 8 18 22 0
113 7 18 21 0
114 7 18 21 0
114 7 10 10 0
113 9 10 10 0
120 10 11 6 0
118 10 11 7 0
118 10 11 6 0
121 11 11 7 0
115 11 11 7 0
121 14 12 8 0
119 14 12 8 0
118 14 14 12 0
121 14 14 12 0
115 14 13 12 0
116 12 13 17 0
116 12 13 17 0
115 12 13 17 0
117 11 14 17 0
115 10 13 19 0
116 6 13 19 0
117 4 12 19 0
113 5 10 18 0
118 5 11 17 0
116 4 9 17 0
117 4 6 12 0
118 6 6 11 0
114 7 6 10 0
119 8 6 11 0
117 8 6 9 0
115 9 7 10 0
119 9 7 10 0
115 9 9 10 0
117 9 9 11 0
117 13 12 12 0
115 13 14 16 0
119 12 20 22 0
116 12 20 22 0
118 11 20 21 0
119 11 21 22 0
117 11 21 21 0
122 11 21 22 0
119 10 21 22 0
119 10 21 21 0
123 5 19 21 0
119 6 17 18 0
124 8 10 11 0
122 8 10 11 0
121 9 9 11 0
125 10 8 11 0
120 11 10 12 0
121 10 8 11 0
121 10 8 11 0
119 11 8 11 0
125 12 8 10 0
121 12 8 11 0
120 10 9 11 0
121 9 8 11 0
117 8 8 8 0
120 7 8 9 0
117 7 7 8 0
117 6 8 11 0
120 6 9 13 0
116 5 9 13 0
115 5 9 13 0
114 5 9 12 0
112 5 8 12 0
116 5 8 12 0
111 4 8 13 0
111 5 8 13 0
112 5 8 13 0
107 5 6 11 0
112 6 11 12 0
108 6 11 12 0
114 7 12 12 0
116 7 13 12 0
114 8 14 13 0
117 8 16 13 0
116 8 18 13 0
116 8 18 12 0
120 8 18 12 0
117 8 17 12 0
120 7 13 7 0
120 6 14 7 0
112 10 14 7 0
119 11 13 8 0
114 12 12 8 0
114 13 10 8 0
115 12 5 8 0
112 12 4 8 0
118 13 5 10 0
114 12 6 11 0
111 13 7 11 0
114 13 7 11 0
111 12 7 11 0
114 11 15 11 0
112 9 15 11 0
114 9 17 13 0
117 9 17 13 0
113 9 17 18 0
114 9 17 17 0
114 10 15 16 0
115 9 16 22 0
119 9 16 22 0
116 8 15 22 0
122 13 14 23 0
123 14 17 24 0
118 15 15 23 0
124 15 15 23 0
123 15 16 18 0
122 14 16 18 0
125 14 16 18 0
121 14 17 14 0
125 14 17 14 0
124 14 17 14 0
117 11 15 12 0
121 11 10 8 0
116 8 10 7 0
116 8 9 7 0
118 9 8 9 0
112 10 9 10 0
114 9 9 15 0
111 10 7 20 0
112 10 7 20 0
115 9 8 21 0
109 9 10 22 0
113 9 10 21 0
112 9 11 21 0
109 9 11 21 0
111 9 11 20 0
108 8 11 17 0
113 8 11 15 0
112 7 11 12 0
108 6 10 12 0
115 10 11 9 0
112 10 10 6 0
111 10 8 6 0
111 10 7 7 0
109 9 7 7 0
114 9 7 8 0
111 10 7 11 0
112 10 7 12 0
114 9 9 14 0
110 9 9 15 0
113 7 11 16 0
112 7 11 16 0
112 7 12 16 0
116 6 11 16 0
113 6 11 16 0
117 6 11 15 0
116 7 12 16 0
114 7 12 16 0
122 9 13 14 0
118 9 12 14 0
117 8 11 11 0
118 8 11 13 0
116 8 11 12 0
119 8 11 13 0
116 8 11 15 0
115 9 11 18 0
117 9 11 17 0
113 9 11 17 0
113 8 12 17 0
113 7 11 16 0
111 7 11 17 0
119 11 11 18 0
114 13 14 18 0
118 14 15 19 0
118 15 15 16 0
117 15 16 15 0
121 15 16 16 0
118 15 16 15 0
118 15 14 15 0
121 15 14 15 0
116 15 16 16 0
116 10 14 15 0
115 9 12 15 0
112 9 11 14 0
117 5 9 13 0
110 4 9 15 0
114 4 9 16 0
114 4 9 16 0
112 4 9 19 0
115 4 8 22 0
112 4 8 20 0
117 6 8 20 0
117 6 8 20 0
113 6 9 20 0
116 8 11 20 0
114 8 11 19 0
109 10 15 20 0
110 10 15 19 0
105 11 16 18 0
110 12 16 16 0
108 12 16 16 0
108 12 15 16 0
113 12 17 16 0
111 12 17 17 0
115 11 16 18 0
115 11 16 18 0
117 8 12 15 0
121 8 14 19 0
118 8 14 20 0
120 8 14 20 0
121 8 14 20 0
115 7 14 22 0
118 6 12 23 0
115 7 11 21 0
113 6 12 20 0
117 7 15 23 0
113 7 15 22 0
119 8 13 19 0
117 8 13 19 0
114 7 14 18 0
119 8 14 18 0
115 7 14 16 0
119 9 15 15 0
120 8 15 15 0
117 9 16 15 0
120 9 15 12 0
117 9 15 11 0
117 9 14 7 0
121 10 20 16 0
120 11 17 16 0
122 9 14 16 0
118 8 15 16 0
115 9 16 16 0
119 11 18 17 0
117 12 19 18 0
116 14 18 19 0
115 14 18 19 0
113 14 20 19 0
116 12 10 9 0
109 11 10 10 0
112 11 9 12 0
113 8 9 13 0
112 8 9 13 0
117 8 8 13 0
113 8 9 12 0
115 5 9 12 0
117 5 9 12 0
115 6 7 12 0
119 7 6 12 0
117 6 5 9 0
115 8 6 8 0
121 9 8 10 0
116 9 10 10 0
118 8 10 10 0
117 8 17 15 0
115 8 18 17 0
118 9 18 17 0
112 7 18 17 0
112 8 18 17 0
114 7 18 17 0
111 8 18 16 0
113 7 19 15 0
110 7 17 13 0
112 8 18 14 0
115 7 12 9 0
112 7 12 5 0
118 4 11 6 0
117 5 13 12 0
114 5 13 13 0
116 5 13 12 0
112 5 13 16 0
117 9 10 17 0
117 9 10 17 0
113 8 8 18 0
118 8 9 17 0
115 9 9 18 0
115 8 13 20 0
116 8 11 18 0
116 7 11 17 0
121 7 12 18 0
119 8 11 16 0
116 3 11 15 0
119 3 13 15 0
116 7 14 14 0
122 10 13 14 0
121 10 14 14 0
119 10 10 10 0
122 10 10 7 0
117 11 10 7 0
118 11 10 7 0
119 11 10 8 0
117 11 11 8 0
122 11 11 11 0
117 8 17 13 0
119 7 17 13 0
120 7 19 13 0
117 7 21 14 0
122 7 21 14 0
120 6 21 14 0
121 6 21 14 0
124 6 21 14 0
120 6 21 14 0
122 6 18 11 0
122 6 15 10 0
116 6 15 10 0
121 6 11 10 0
117 5 6 6 0
118 6 9 9 0
119 7 10 10 0
113 7 10 11 0
116 7 9 12 0
113 7 11 12 0
113 7 11 13 0
115 7 13 16 0
109 7 13 16 0
115 7 15 18 0
114 7 15 18 0
113 10 14 17 0
117 9 13 17 0
114 9 13 16 0
119 10 12 13 0
118 10 12 13 0
115 10 10 12 0
119 9 9 11 0
115 9 9 11 0
112 8 7 12 0
113 9 7 12 0
112 7 9 12 0
112 9 9 12 0
109 10 9 10 0
111 11 9 10 0
115 12 9 11 0
112 12 9 10 0
115 12 10 13 0
114 12 11 15 0
115 12 11 14 0
119 11 11 13 0
113 11 10 13 0
119 8 9 13 0
119 7 10 14 0
114 5 10 14 0
118 4 10 13 0
116 4 10 13 0
115 5 9 12 0
118 5 7 9 0
113 5 7 9 0
117 5 8 9 0
115 5 8 8 0
120 13 12 14 0
124 13 11 12 0
120 13 11 12 0
122 14 11 11 0
121 14 11 11 0
122 15 11 11 0
126 15 11 11 0
122 16 11 11 0
123 16 11 11 0
123 16 10 11 0
113 8 5 5 0
117 8 5 6 0
114 8 6 6 0
117 8 8 6 0
119 7 8 5 0
114 8 11 6 0
119 8 13 7 0
118 8 14 6 0
118 8 14 8 0
122 8 14 8 0
118 8 14 7 0
119 8 17 7 0
119 9 17 7 0
114 8 16 7 0
119 6 17 8 0
115 4 17 5 0
117 5 18 6 0
118 5 18 6 1
115 5 17 5 1
117 6 17 5 1
115 7 18 5 1
117 9 15 6 1
120 8 13 6 1
115 9 12 4 1
119 9 13 4 2
117 10 11 4 2
115 9 11 6 2
119 9 9 6 2
116 9 9 6 2
117 9 8 5 3
118 7 10 5 3
113 7 13 6 3
118 7 13 6 3
114 5 21 8 3
116 6 24 8 4
118 6 24 9 4
115 7 26 10 4
118 7 26 11 4
116 8 33 11 4
117 7 35 11 5
120 6 33 11 5
117 7 31 11 5
120 7 32 11 5
119 8 31 10 5
117 9 30 10 6
121 10 30 9 6
114 8 27 5 6
116 8 27 5 6
118 9 24 5 6
118 10 22 9 7
119 11 31 10 7
113 11 52 12 7
114 11 54 12 7
115 10 57 14 7
110 6 67 15 7
115 6 68 15 8
114 7 68 14 8
115 9 68 15 8
116 10 67 18 8
109 10 66 18 8
117 11 63 16 8
117 10 45 12 9
116 10 48 13 9
119 10 52 13 9
117 10 38 14 9
117 10 35 14 9
118 11 47 14 9
115 11 50 15 10
118 11 52 16 10
115 11 56 16 10
113 10 56 16 10
116 10 67 16 11
111 10 69 15 11
114 8 66 17 11
112 8 70 17 11
112 9 70 16 12
115 7 66 14 12
108 6 64 14 12
113 6 61 11 12
114 6 53 11 12
110 6 56 12 13
114 6 50 10 13
110 7 44 10 13
112 6 43 8 13
114 6 34 7 14
107 4 33 7 14
111 4 32 5 14
109 4 32 7 14
108 4 34 8 15
111 4 34 8 15
106 4 25 12 15
108 3 27 13 16
107 2 39 13 16
106 2 42 13 16
110 3 44 13 16
106 3 60 16 17
109 3 72 22 17
109 5 72 23 17
105 5 72 25 18
111 6 75 25 18
109 6 76 22 18
109 6 70 19 18
111 6 56 15 19
108 6 46 14 19
115 9 48 19 19
113 13 53 25 20
110 14 56 24 20
114 15 68 25 20
111 15 68 21 21
112 15 60 19 21
111 13 61 21 21
110 12 69 20 22
112 11 69 19 22
108 9 69 19 22
109 9 72 18 22
110 8 76 17 23
109 10 68 15 23
113 10 56 13 23
110 9 58 13 23
110 9 59 15 24
111 10 58 15 24
104 11 54 18 24
111 13 54 17 25
110 13 53 18 25
107 11 56 17 25
110 11 55 18 25
106 11 71 19 26
108 11 70 19 26
108 11 69 17 26
106 11 75 17 27
112 12 73 16 27
112 11 73 14 27
111 5 76 13 28
112 4 84 14 28
108 4 82 15 28
114 4 79 13 28
112 5 66 13 29
111 5 79 17 29
115 6 90 16 29
110 6 87 18 30
112 6 101 20 30
111 7 101 20 30
111 7 105 22 31
113 7 100 20 31
110 8 100 22 31
109 8 114 24 32
110 8 114 24 32
106 8 105 21 32
112 8 89 20 32
109 8 89 19 33
110 8 82 18 33
111 6 87 18 33
104 5 79 15 34
109 4 67 15 34
106 6 72 13 34
107 6 64 10 35
109 6 53 8 35
105 6 60 11 35
105 6 80 12 35
104 8 80 12 36
101 8 80 13 36
105 7 74 14 36
102 8 86 16 36
103 8 86 16 37
104 7 85 15 37
100 7 77 14 37
104 7 71 12 37
102 7 70 12 38
106 6 60 11 38
108 5 66 11 38
105 5 67 10 38
110 5 66 10 39
109 5 46 11 39
110 6 48 14 39
113 6 46 14 40
110 6 57 25 40
114 6 55 25 40
113 6 69 27 40
108 6 74 27 41
111 6 85 27 41
107 6 115 29 41
110 6 120 29 41
111 6 130 31 42
106 4 141 30 42
110 4 142 30 42
107 5 149 25 42
105 5 149 26 43
108 4 147 27 43
105 4 146 27 43
109 4 144 27 43
108 4 126 25 44
107 3 119 25 44
110 4 115 21 44
106 4 100 22 44
109 4 103 22 45
110 4 85 19 45
110 4 95 22 45
114 4 91 19 45
112 5 98 20 46
110 6 107 23 46
113 6 102 23 46
109 7 105 23 46
115 7 100 24 47
114 10 111 26 47
112 9 111 26 47
114 9 119 26 47
111 10 119 23 47
113 10 113 25 48
112 10 108 25 48
111 9 95 21 48
116 9 98 22 48
110 9 98 22 49
113 8 115 24 49
113 5 107 23 49
111 5 102 21 49
115 5 97 21 50
110 5 84 21 50
111 5 92 19 50
112 5 90 20 50
110 5 92 21 51
109 5 89 19 51
107 5 82 18 51
102 5 64 13 51
106 4 62 12 52
102 5 71 18 52
105 4 82 20 52
105 5 82 20 52
101 5 82 24 53
105 7 83 24 53
100 7 88 24 53
104 6 101 24 53
106 6 101 27 54
104 5 103 27 54
108 5 100 28 54
105 5 108 25 54
104 5 111 27 55
106 5 117 26 55
103 5 110 22 55
106 3 111 22 55
105 3 109 22 56
105 4 95 22 56
108 6 95 21 56
104 5 92 22 56
104 5 93 21 57
104 5 72 20 57
101 5 61 14 57
107 5 51 17 57
105 6 58 17 58
107 7 70 17 58
108 7 65 18 58
103 6 92 17 58
109 5 93 15 59
106 4 107 16 59
109 5 108 16 59
112 6 118 16 59
109 6 120 16 60
111 6 139 24 60
110 4 149 24 60
107 4 152 29 60
110 4 175 35 60
108 4 164 35 61
105 5 177 38 61
105 6 173 37 61
100 6 192 44 61
102 6 191 44 62
99 6 195 46 62
101 6 204 43 62
103 6 193 44 62
101 7 200 42 62
104 7 182 36 63
102 6 185 36 63
103 6 171 34 63
107 6 174 32 63
105 8 154 23 63
109 8 150 22 64
109 9 153 20 64
105 9 127 16 64
110 9 130 14 64
106 9 121 15 65
109 9 126 14 65
111 9 129 17 65
111 9 138 22 65
115 9 134 23 65
112 5 133 23 66
110 6 132 22 66
113 5 123 24 66
109 5 111 23 66
111 5 117 22 66
110 5 112 22 67
111 6 108 22 67
115 6 137 24 67
110 8 127 19 67
115 8 134 17 67
115 8 148 18 68
111 8 150 21 68
116 7 156 22 68
114 7 157 21 68
114 7 155 24 69
115 7 154 25 69
110 6 151 24 69
114 6 116 22 69
110 5 118 22 69
106 5 110 22 70
110 5 100 21 70
109 5 95 18 70
111 7 80 18 70
110 7 78 18 71
109 7 69 16 71
114 7 88 19 71
109 7 91 19 71
108 7 100 19 71
108 6 104 21 72
106 6 104 20 72
108 6 97 21 72
105 6 104 22 72
106 5 113 22 73
108 5 115 25 73
104 4 119 28 73
108 4 106 26 73
106 4 106 26 74
105 5 105 25 74
107 4 109 23 74
104 4 109 24 74
108 5 108 27 75
107 8 108 26 75
107 8 98 29 75
112 8 104 28 75
108 9 100 26 76
109 9 119 27 76
111 9 118 27 76
107 9 119 27 76
113 9 125 28 77
111 9 124 28 77
110 10 143 27 77
111 8 141 27 77
106 8 143 25 78
108 9 157 33 78
108 8 154 31 78
109 8 150 29 78
113 8 139 29 78
111 8 140 29 79
113 8 129 29 79
112 7 134 35 79
109 5 126 33 79
114 4 122 33 80
110 3 126 35 80
112 4 99 28 80
113 6 103 29 80
106 6 96 29 81
106 6 117 29 81
104 7 120 29 81
105 8 121 29 81
108 8 120 22 81
106 8 105 27 82
113 8 109 28 82
111 8 111 26 82
109 7 133 32 82
112 6 129 31 83
109 6 133 36 83
113 6 115 36 83
113 5 115 40 83
106 5 116 45 84
108 5 130 48 84
103 6 129 44 84
102 6 125 42 84
103 6 126 44 85
101 7 119 43 85
108 7 118 44 85
107 6 127 40 85
108 7 136 39 86
111 6 124 35 86
109 6 128 24 86
115 6 117 27 86
115 7 119 27 86
111 7 121 25 87
116 6 119 25 87
112 4 129 26 87
115 4 127 24 87
114 4 120 24 88
109 4 147 33 88
115 4 147 33 88
112 5 157 34 88
113 6 157 31 89
115 6 163 32 89
111 9 158 33 89
111 10 170 32 89
109 9 187 33 90
108 9 186 33 90
110 11 209 35 90
108 11 198 26 90
109 12 197 26 90
109 12 190 25 91
105 12 192 25 91
111 12 189 31 91
108 9 189 31 91
116 9 182 33 91
116 9 141 29 92
110 9 138 29 92
114 8 108 27 92
110 7 83 29 92
112 7 83 31 92
117 6 81 30 93
114 7 78 30 93
117 7 64 24 93
116 7 92 28 93
114 8 85 23 93
117 9 101 28 93
111 9 101 29 94
117 9 103 29 94
118 9 102 27 94
118 15 114 30 94
115 25 112 32 94
109 29 119 32 94
116 30 119 35 95
118 29 122 25 95
112 26 121 22 95
119 26 129 26 95
118 26 157 26 95
113 23 161 26 96
117 19 165 26 96
110 22 158 27 96
122 19 175 35 96
124 16 169 35 96
124 21 200 43 96
123 26 201 53 97
119 29 225 65 97
114 35 237 64 97
131 53 225 71 97
158 77 222 86 97
151 95 220 103 97
148 100 237 108 98
156 99 236 112 98
151 92 236 108 98
129 79 192 90 98
135 61 151 59 98
138 62 140 72 98
145 67 129 68 99
141 72 107 79 99
119 67 142 80 99
139 53 163 68 99
136 42 142 57 99
120 33 138 42 99
129 25 139 39 100
130 20 142 37 100
119 14 137 29 100
121 14 150 29 100
120 13 141 30 100
122 13 136 28 101
117 12 160 30 101
139 38 150 38 101
139 47 144 53 101
130 53 147 61 101
133 53 148 61 101
137 64 149 66 102
152 76 189 90 102
152 81 218 95 102
145 85 218 93 102
157 87 218 94 102
157 88 194 98 102
128 76 194 94 103
132 62 198 80 103
132 31 184 56 103
125 29 171 54 103
125 29 161 55 103
109 24 139 37 104
118 21 84 33 104
118 18 83 32 104
108 14 94 33 104
113 12 123 23 104
112 11 124 24 104
112 10 141 33 105
111 10 137 35 105
111 10 174 46 105
116 11 192 48 105
112 10 190 48 105
116 11 221 52 105
116 10 220 52 105
114 10 214 51 106
121 9 200 51 106
118 9 200 49 106
118 8 181 44 106
120 9 179 42 106
117 12 156 37 106
118 13 137 34 107
116 15 153 39 107
119 15 96 34 107
124 18 164 40 107
122 20 163 43 107
117 21 169 42 107
118 22 176 40 107
118 23 191 49 108
121 27 248 52 108
116 25 262 52 108
122 22 270 53 108
123 17 276 50 108
116 12 312 59 108
119 12 293 57 109
114 13 307 54 109
118 16 319 55 109
119 17 316 56 109
112 17 348 59 109
118 12 308 55 109
117 12 320 52 109
117 12 318 51 110
121 12 312 51 110
114 16 284 39 110
117 16 277 39 110
117 17 267 40 110
114 15 247 37 110
120 14 252 39 111
118 14 206 29 111
120 15 211 33 111
121 16 179 32 111
115 16 161 31 111
120 17 153 30 111
118 13 133 30 112
119 13 131 30 112
123 12 133 28 112
118 13 132 29 112
123 12 148 26 112
122 10 152 32 112
119 10 148 30 112
122 10 212 34 113
118 11 213 34 113
118 10 223 34 113
119 10 228 34 113
115 10 231 35 113
117 12 247 38 113
114 13 255 37 114
113 13 253 37 114
115 13 237 30 114
110 13 270 32 114
116 14 245 30 114
114 13 262 36 114
113 15 271 38 115
116 16 267 38 115
112 19 284 38 115
121 17 265 46 115
120 17 257 46 115
119 18 275 50 115
123 18 271 51 115
121 17 232 47 115
123 17 218 55 116
123 17 204 51 116
122 16 180 48 116
126 15 179 50 116
122 11 146 49 116
117 11 149 41 116
119 12 149 41 116
115 11 123 43 116
119 11 125 41 117
117 12 151 41 117
118 11 154 28 117
121 11 164 28 117
116 12 175 28 117
119 13 206 36 117
119 18 215 36 117
118 19 228 39 117
123 19 232 41 117
119 18 219 35 117
119 18 251 37 117
120 18 234 44 117
114 18 241 48 118
120 19 246 49 118
117 18 241 49 118
117 19 247 44 118
119 13 246 43 118
116 13 233 39 118
120 13 228 37 118
119 14 232 37 118
119 13 196 36 118
124 13 204 22 118
120 12 194 19 118
120 11 186 28 118
120 11 185 29 118
118 11 147 29 118
124 10 144 33 118
121 11 141 32 118
119 11 153 33 118
120 12 154 34 119
115 12 151 33 119
120 12 137 32 119
117 12 156 32 119
117 11 150 36 119
119 11 156 36 119
114 13 156 36 119
118 13 145 38 119
117 14 145 39 119
117 15 152 47 119
121 14 151 48 119
117 13 166 48 119
118 12 158 48 119
120 15 163 58 119
118 15 157 54 119
123 16 159 55 119
121 16 181 57 119
121 16 192 57 119
122 16 214 55 119
118 15 213 49 119
122 16 221 51 119
121 16 214 52 119
121 21 244 53 119
124 20 241 45 119
118 20 253 45 119
121 20 253 45 119
120 23 262 51 120
119 23 260 47 120
124 23 241 48 120
120 23 240 48 120
123 21 227 45 120
125 23 234 45 120
120 21 200 45 120
123 19 192 39 120
120 19 170 34 120
124 15 162 30 120
128 15 122 22 120
121 15 116 28 120
125 17 133 27 120
124 18 123 25 120
125 17 133 37 120
130 17 155 37 120
126 17 173 44 120
129 18 202 48 120
129 17 204 47 120
124 24 268 68 121
128 24 268 71 121
125 25 285 74 121
125 24 280 76 121
126 24 280 76 121
119 24 279 70 121
123 23 262 73 121
120 23 254 71 121
120 23 232 67 121
124 22 229 67 121
118 14 157 46 121
120 15 174 43 121
119 15 134 35 121
122 14 135 28 121
127 14 138 28 121
122 14 127 29 121
123 11 113 27 121
124 11 114 24 121
120 13 107 24 121
125 13 107 23 121
122 13 103 23 121
124 12 75 21 121
126 11 74 21 121
120 10 57 15 121
122 12 68 21 121
120 12 68 20 121
120 12 68 16 121
124 13 67 19 121
120 11 68 19 121
124 12 65 19 121
124 11 64 19 121
120 11 61 19 121
125 11 63 20 121
121 11 64 21 121
123 8 50 17 121
124 6 70 16 121
120 6 71 16 121
124 4 64 12 121
121 4 72 13 121
120 3 74 13 121
123 3 76 13 121
119 5 75 13 121
122 4 79 11 121
120 4 78 12 121
118 6 87 15 121
121 8 75 16 121
117 9 76 16 120
120 10 77 16 120
120 10 71 15 120
119 13 72 20 120
126 13 81 25 120
122 12 86 24 120
123 13 84 25 120
125 13 89 25 119
122 12 78 23 119
126 11 75 23 119
124 11 74 23 119
123 10 73 23 119
126 11 72 23 119
121 8 68 19 118
120 7 56 12 118
119 7 44 12 118
117 5 42 11 118
121 5 39 10 118
117 3 39 10 117
119 4 63 13 117
120 4 66 17 117
117 5 81 17 117
121 7 80 19 117
117 7 79 21 116
119 7 83 21 116
121 8 82 21 116
119 8 82 22 116
123 8 82 22 115
121 8 82 21 115
120 10 67 21 115
123 10 63 20 115
120 10 42 20 114
123 7 46 17 114
122 7 45 14 114
123 6 32 15 113
128 6 31 15 113
123 7 36 21 113
124 7 39 21 113
125 7 40 21 112
123 6 41 22 112
128 5 45 21 112
124 6 45 26 111
122 5 48 27 111
127 5 51 27 111
121 5 51 24 110
124 5 50 25 110
121 5 50 21 110
121 5 51 21 109
125 5 48 21 109
117 4 59 19 109
121 4 57 21 108
120 4 57 12 108
123 5 57 11 107
128 5 60 15 107
122 5 59 15 107
126 6 58 15 106
128 6 53 15 106
128 6 47 15 106
129 6 48 15 105
126 6 43 15 105
124 6 45 14 105
129 5 45 14 104
123 4 41 16 104
124 3 39 13 104
124 3 39 13 103
123 3 42 14 103
125 4 56 15 103
118 5 58 13 102
123 5 69 12 102
124 5 70 13 102
122 6 69 15 101
124 9 80 16 101
120 8 79 13 101
121 8 73 11 100
121 7 71 10 100
115 7 73 12 100
120 7 67 13 99
117 7 65 13 99
119 7 47 12 99
124 8 48 11 98
121 7 49 11 98
123 4 33 10 98
122 4 33 10 97
120 4 34 11 97
124 3 34 10 97
120 3 39 8 96
121 4 40 6 96
122 4 40 6 95
116 3 57 10 95
119 4 54 11 95
116 5 58 15 94
117 5 58 15 94
118 5 58 15 94
114 5 56 16 93
120 6 56 16 93
119 8 54 17 92
118 7 57 19 92
123 8 57 20 92
119 8 44 20 91
123 7 46 21 91
122 5 45 18 91
120 8 60 22 90
124 8 60 22 90
120 7 63 22 89
120 8 64 22 89
121 7 65 22 89
117 8 67 20 88
119 7 71 20 88
116 8 71 18 87
115 8 73 17 87
117 9 77 17 86
113 5 65 11 86
116 5 68 11 86
114 4 67 11 85
112 5 66 11 85
117 7 66 12 84
114 7 57 10 84
116 7 53 11 83
116 7 56 11 83
112 7 51 10 82
116 7 58 17 82
112 6 61 18 81
115 6 56 18 81
117 6 62 19 81
113 7 62 19 80
115 5 61 19 80
113 5 61 19 79
113 6 67 18 79
114 6 62 16 78
109 6 62 18 78
117 6 58 12 77
116 7 56 16 77
115 7 56 18 76
118 7 49 20 76
115 8 72 21 75
117 9 71 22 75
118 9 86 23 74
114 9 95 24 74
119 9 98 25 73
116 10 103 26 73
115 11 102 27 72
116 10 102 21 72
111 10 102 21 71
115 9 102 20 71
112 9 87 18 70
114 9 87 18 70
116 14 76 16 70
111 15 57 17 69
117 15 54 16 69
117 14 58 14 68
111 11 62 15 68
114 9 89 24 68
109 10 108 30 67
113 12 108 30 67
113 14 110 32 66
106 14 109 33 66
113 11 110 33 66
111 12 108 33 65
106 10 96 32 65
108 9 87 33 64
105 7 90 32 64
111 5 72 26 64
110 7 32 10 63
106 8 34 10 63
110 8 29 10 63
108 8 27 10 62
108 10 24 11 62
107 8 22 13 62
106 8 22 13 61
108 7 22 17 61
105 7 34 17 61
105 7 61 21 60
106 7 71 24 60
103 7 66 24 60
107 7 73 25 59
105 7 75 26 59
106 5 77 27 58
108 5 78 26 58
105 5 77 25 58
109 6 86 20 57
108 6 85 20 57
110 6 77 19 57
112 7 71 16 56
109 8 71 18 56
109 8 68 16 56
109 8 66 15 55
107 8 62 13 55
111 8 58 11 55
107 8 61 14 54
108 7 55 15 54
109 6 56 14 54
100 4 68 22 53
105 4 65 22 53
103 5 73 25 53
102 5 80 25 52
105 5 89 29 52
102 5 99 29 52
105 5 102 29 51
104 5 98 28 51
101 5 97 27 51
106 5 97 27 50
104 5 87 21 50
104 6 88 21 49
105 5 85 16 49
106 7 73 17 49
107 7 68 12 49
103 7 59 13 48
105 7 53 14 48
107 8 55 12 48
103 6 59 11 47
106 6 61 11 47
104 7 68 11 47
107 10 68 16 46
109 12 60 21 46
102 12 66 20 46
109 13 63 20 45
109 11 56 17 45
104 10 61 18 45
109 6 66 17 44
107 6 63 16 44
108 5 73 17 44
109 4 70 16 43
104 4 67 16 43
109 5 70 14 43
108 7 67 15 42
104 7 67 15 42
107 8 68 15 42
106 9 63 11 41
105 9 54 12 41
102 8 67 14 41
101 7 61 13 40
103 6 58 14 40
98 6 64 15 40
101 6 60 15 39
101 7 60 15 39
101 9 60 16 39
104 9 58 15 38
99 8 58 15 38
103 6 60 15 38
104 5 41 11 38
101 4 44 11 37
107 4 51 10 37
104 4 43 10 37
105 4 47 9 36
107 5 47 11 36
102 6 45 11 36
105 5 45 10 36
104 7 43 10 35
102 7 36 8 35
107 7 36 7 35
104 7 34 7 35
105 6 30 7 34
105 4 32 6 34
104 4 31 8 34
109 4 40 7 34
106 8 40 7 34
113 10 40 7 33
114 10 44 8 33
111 10 43 8 33
112 11 43 9 33
109 11 42 9 32
111 11 39 9 32
113 11 33 9 32
107 11 34 8 32
110 12 26 8 32
109 10 23 8 31
102 6 24 7 31
106 6 18 6 31
104 7 19 7 31
106 7 21 6 30
107 7 14 6 30
103 6 14 6 30
105 5 12 5 30
103 6 12 5 29
103 6 14 8 29
106 7 30 9 29
102 9 43 10 29
104 9 46 10 28
102 8 46 9 28
102 8 44 9 28
104 8 43 9 28
100 8 42 9 27
105 8 42 9 27
104 7 47 8 27
102 7 43 8 27
104 7 42 7 26
100 6 34 7 26
99 7 31 7 26
100 6 33 6 26
98 7 33 8 25
101 5 32 8 25
98 5 33 8 25
100 7 32 11 25
102 7 23 11 25
98 7 22 11 25
103 7 18 11 24
102 6 14 9 24
102 6 12 9 24
106 5 8 9 24
101 8 8 10 24
105 8 8 10 24
105 9 7 10 23
99 8 8 8 23
101 8 8 7 23
99 9 8 6 23
98 7 5 6 23
99 7 7 7 22
97 7 7 7 22
102 8 10 7 22
100 7 12 7 22
100 8 12 8 22
102 8 11 8 21
99 8 10 7 21
100 11 10 9 21
98 11 11 9 21
100 13 11 9 21
103 13 11 9 20
99 13 11 9 20
103 13 10 9 20
104 16 9 9 20
100 15 9 7 19
103 14 9 6 19
101 15 12 8 19
104 14 12 7 19
105 13 11 7 18
100 13 10 7 18
106 15 11 10 18
103 15 11 9 18
100 15 11 9 17
103 11 9 8 17
100 12 9 8 17
103 12 9 7 17
102 12 6 7 17
103 12 7 8 16
107 13 7 8 16
104 10 8 9 16
103 10 8 7 16
104 10 8 9 15
103 12 10 14 15
107 12 14 14 15
103 11 17 14 15
106 11 19 14 15
107 12 26 16 15
103 12 30 15 14
107 10 36 16 14
105 9 36 18 14
107 9 36 18 14
110 9 36 16 14
103 7 37 14 14
107 8 36 14 14
106 9 35 14 13
104 10 31 14 13
111 9 31 14 13
107 8 28 14 13
108 7 17 11 13
109 8 15 10 13
105 8 12 10 13
108 8 11 11 13
106 8 12 12 13
107 8 11 16 13
109 9 12 17 12
107 13 13 16 12
109 13 13 16 12
108 13 16 16 12
111 16 19 20 12
115 17 20 21 12
110 16 22 24 12
111 18 26 26 12
112 19 27 27 12
109 19 26 26 12
112 19 25 25 12
106 15 25 25 12
109 16 24 25 12
109 18 24 27 12
97 11 18 22 12
99 14 19 22 12
98 14 13 13 12
105 20 21 15 12
105 21 23 18 12
100 21 23 18 12
106 21 23 20 11
105 21 22 20 11
97 20 21 19 11
101 16 19 15 11
101 10 17 12 11
104 12 17 13 11
105 12 16 14 11
98 8 13 15 11
103 8 14 14 11
101 11 20 15 10
99 9 21 15 10
102 10 21 15 10
102 8 21 16 10
106 8 18 12 10
103 8 18 12 10
103 7 18 12 10
106 6 18 12 9
100 9 15 10 9
100 11 16 11 9
99 11 13 12 9
98 13 11 11 9
102 13 12 10 9
98 14 9 10 8
98 15 8 9 8
99 15 8 9 8
95 15 7 10 8
100 16 8 11 8
99 14 9 12 8
105 17 8 12 8
108 17 6 12 7
105 17 6 13 7
107 18 8 13 7
106 19 8 12 7
106 18 8 13 7
111 18 9 11 7
109 21 12 16 7
112 20 13 16 7
112 20 12 16 7
110 17 12 19 7
114 17 28 31 6
110 17 32 34 6
113 13 31 34 6
116 16 31 35 6
115 17 31 35 6
117 17 31 35 6
113 13 30 33 6
112 13 30 33 6
114 14 30 33 5
108 14 33 32 5
113 15 22 21 5
113 14 17 16 5
109 17 17 15 5
110 15 18 14 5
105 15 18 14 5
106 16 18 13 4
106 16 19 13 4
103 16 17 12 4
109 15 16 15 4
109 19 13 17 4
105 16 13 20 4
106 17 16 21 4
104 17 16 21 3
108 18 15 22 3
106 18 15 22 3
108 17 22 21 3
110 16 29 33 3
107 17 29 34 3
108 16 29 33 3
105 12 28 31 2
106 10 27 27 2
110 9 26 27 2
106 7 26 26 2
108 6 26 26 2
109 7 26 26 2
102 10 18 24 2
105 9 9 12 1
102 12 9 14 1
100 12 9 14 1
103 15 12 17 1
99 17 13 16 1
100 17 15 22 1
98 17 15 22 1
96 17 15 22 1
100 17 15 21 1
100 18 17 24 0
105 19 18 25 0
105 16 20 23 0
106 17 22 24 0
109 16 20 24 0
105 13 22 26 0
108 11 20 21 0
109 10 20 21 0
106 8 21 21 0
109 9 21 22 0
106 8 20 21 0
105 8 20 20 0
107 7 21 21 0
107 19 20 22 0
115 23 22 24 0
114 23 20 23 0
113 25 22 23 0
117 25 22 22 0
113 26 24 23 0
119 27 28 27 0
119 27 27 27 0
117 27 27 27 0
121 27 24 26 0
113 17 24 23 0
110 15 20 21 0
112 14 20 19 0
109 11 17 19 0
112 9 17 19 0
110 5 14 18 0
108 6 6 14 0
111 7 7 14 0
107 8 11 14 0
111 8 12 14 0
110 9 20 21 0
112 10 20 25 0
115 10 21 25 0
111 11 21 25 0
110 12 21 26 0
110 15 24 23 0
107 14 26 23 0
112 13 25 23 0
109 13 23 24 0
112 13 21 23 0
113 13 17 21 0
108 13 17 17 0
112 12 17 17 0
110 12 17 18 0
117 12 19 24 0
123 13 17 24 0
119 14 16 25 0
118 14 16 25 0
117 15 16 25 0
113 15 16 24 0
119 16 17 24 0
115 16 17 24 0
115 16 16 24 0
116 15 17 24 0
110 14 25 16 0
112 11 35 16 0
108 9 42 14 0
110 8 45 18 0
113 8 62 16 0
108 8 82 16 0
111 7 86 17 0
109 7 86 17 0
109 7 87 17 0
112 8 87 17 0
106 6 82 17 0
110 5 75 15 0
110 5 65 15 0
109 5 67 11 0
114 5 62 7 0
111 6 35 6 0
113 6 13 3 0
114 6 14 5 0
108 6 18 4 0
111 6 22 5 0
110 7 24 5 0
107 7 22 5 0
109 7 21 5 0
106 8 43 9 1
109 8 65 12 1
107 7 77 12 1
103 8 78 13 1
109 8 77 12 1
107 8 76 13 2
110 7 74 12 2
110 5 62 13 2
109 6 55 13 3
113 6 51 14 3
109 4 56 11 4
111 4 55 8 4
114 4 53 8 5
111 4 55 7 5
114 4 56 7 6
111 5 50 6 6
111 6 30 6 7
113 6 11 5 7
107 5 12 6 8
114 8 16 4 8
113 9 23 4 9
107 9 34 5 9
111 8 37 8 10
107 9 64 7 10
108 7 66 16 11
109 7 73 16 11
105 7 78 18 12
113 8 96 21 12
111 9 105 23 12
107 8 100 24 13
109 7 94 24 13
108 6 82 26 14
110 6 95 26 14
108 6 109 28 15
109 5 128 25 15
110 6 126 25 16
105 5 131 23 16
104 5 115 21 17
103 5 97 16 17
105 8 97 16 18
108 8 118 35 18
103 9 126 37 19
106 9 122 36 19
106 12 115 35 20
99 14 91 35 20
109 15 92 37 21
108 13 86 36 21
108 12 94 34 22
109 14 93 32 22
103 15 93 34 23
107 15 76 23 23
105 15 65 21 24
104 15 73 22 24
109 15 69 26 25
108 14 72 25 25
103 9 81 26 26
102 6 81 26 26
101 7 76 26 27
106 5 70 25 27
104 6 70 23 28
104 6 71 23 28
106 6 72 23 29
103 6 70 22 29
107 8 70 19 29
104 8 62 22 30
105 8 45 16 30
107 8 45 16 31
104 7 43 18 31
106 8 43 20 32
105 10 65 22 32
103 9 73 21 32
105 9 71 22 33
100 10 58 21 33
99 7 51 21 34
100 6 55 15 34
103 6 55 15 34
108 7 57 15 35
104 8 58 15 35
105 8 68 13 36
106 6 67 14 36
103 6 54 14 36
107 6 52 14 37
106 6 89 16 37
108 6 91 19 38
110 6 91 21 38
101 3 92 20 38
107 3 95 20 39
107 4 94 20 39
105 6 104 23 40
109 5 103 21 40
107 5 98 21 40
110 6 100 21 41
111 6 89 19 41
109 8 88 17 42
113 8 91 13 42
111 8 110 19 42
106 8 113 20 43
110 8 114 20 43
108 8 104 19 44
112 8 82 18 44
110 8 92 28 44
111 10 135 36 45
113 10 150 36 45
108 8 150 38 46
111 8 149 38 46
111 8 136 36 46
112 9 134 35 47
114 9 133 34 47
109 8 131 34 48
115 8 131 35 48
117 9 122 29 48
115 9 124 33 49
117 10 125 35 49
114 9 125 33 49
116 9 141 34 50
118 8 144 33 50
112 6 145 34 51
116 5 145 37 51
115 6 145 35 52
112 7 151 33 52
113 9 151 36 52
107 9 128 29 53
112 8 111 27 53
112 8 112 26 54
107 8 101 25 54
113 7 108 28 54
112 5 104 29 55
111 5 107 25 55
112 5 114 23 56
108 5 104 23 56
113 5 162 36 57
110 5 175 36 57
109 5 184 39 57
113 5 200 41 58
108 5 195 44 58
109 5 192 42 59
108 6 199 42 59
109 6 199 40 59
112 5 227 45 60
106 6 229 46 60
109 6 204 39 61
110 6 207 38 61
107 5 203 37 62
109 5 191 33 62
106 6 193 30 62
106 5 207 30 63
108 5 203 29 63
103 4 203 29 63
106 5 147 22 64
105 6 132 21 64
103 9 162 33 65
105 10 142 35 65
100 10 143 35 65
105 10 142 36 66
105 11 140 35 66
104 11 116 35 66
107 10 96 34 67
104 10 133 35 67
110 11 145 30 67
110 11 145 34 68
106 9 122 27 68
112 7 114 24 68
110 8 131 24 69
110 6 131 24 69
112 7 137 24 69
109 7 121 18 70
111 7 118 14 70
109 8 102 29 70
105 8 99 30 71
109 8 102 29 71
106 8 115 29 71
107 8 154 34 72
107 7 136 36 72
106 9 148 35 73
109 9 161 36 73
105 9 161 34 73
108 9 168 34 74
111 9 183 32 74
108 11 182 32 74
111 11 189 32 75
109 11 182 36 75
112 13 143 31 75
114 13 120 23 76
110 11 115 23 76
115 10 115 29 77
115 9 113 29 77
114 8 123 36 77
116 8 102 35 78
112 7 104 37 78
116 7 107 37 78
116 8 111 33 79
115 11 113 37 79
121 12 116 38 80
116 12 143 51 80
115 13 144 54 80
116 12 155 54 81
113 12 161 52 81
118 12 153 52 81
115 12 157 52 82
117 12 147 51 82
119 12 194 55 82
110 5 192 52 83
111 6 202 49 83
111 6 186 39 83
110 6 183 34 84
114 5 181 35 84
111 7 170 35 84
113 7 172 33 85
113 9 179 43 85
110 10 179 43 85
116 10 144 40 86
114 10 148 41 86
115 9 139 40 86
117 9 162 47 87
116 9 162 46 87
122 10 190 48 87
121 9 193 47 87
117 9 203 48 88
118 9 224 40 88
116 8 225 41 88
118 8 220 38 89
118 8 219 35 89
118 8 233 36 89
122 7 220 26 89
117 7 254 37 90
117 7 232 37 90
119 6 230 36 90
119 7 223 35 91
124 6 191 34 91
118 5 191 33 91
119 7 206 39 91
120 8 199 40 92
113 8 190 41 92
117 9 181 43 92
115 8 129 33 92
110 8 138 38 93
114 9 144 39 93
112 8 168 42 93
115 9 162 42 93
115 9 167 42 94
110 10 143 37 94
115 9 142 35 94
112 11 164 40 94
114 11 168 40 94
115 13 172 43 95
112 13 162 39 95
116 13 164 40 95
111 13 148 40 95
111 12 161 45 96
113 13 163 51 96
111 12 167 54 96
114 12 190 59 96
113 8 165 54 97
115 8 187 53 97
123 7 203 53 97
120 6 202 53 97
123 8 214 52 98
124 8 220 49 98
124 12 231 50 98
128 12 223 46 98
124 12 243 42 99
125 12 226 37 99
128 13 232 37 99
121 13 223 37 99
122 13 249 38 99
120 13 248 35 100
118 11 250 33 100
119 12 258 35 100
114 9 249 32 100
116 11 300 42 101
116 11 282 41 101
113 12 295 46 101
116 11 286 50 101
112 11 303 54 102
108 11 278 52 102
109 12 290 52 102
104 12 281 54 102
114 11 266 53 103
112 15 289 62 103
115 14 241 54 103
116 14 251 54 103
112 14 234 51 104
115 14 233 46 104
113 13 216 42 104
117 13 206 41 104
121 13 194 42 105
117 13 207 44 105
116 12 212 44 105
115 7 214 46 105
111 7 220 48 105
117 7 218 49 106
114 9 228 49 106
117 9 221 48 106
118 9 228 49 106
117 8 227 50 107
121 11 257 54 107
118 11 249 49 107
117 11 245 48 107
119 9 221 38 107
116 10 213 36 108
118 10 205 34 108
117 9 188 35 108
112 10 222 45 108
116 9 214 48 109
111 9 226 56 109
116 9 186 55 109
115 13 229 65 109
116 12 228 65 109
121 12 272 72 110
117 16 306 78 110
119 16 306 77 110
121 20 359 81 110
119 19 345 77 110
122 20 371 77 111
120 23 368 75 111
119 23 372 78 111
123 21 343 70 111
116 21 331 67 111
120 21 306 62 112
119 19 272 57 112
115 20 277 60 112
119 16 201 53 112
114 16 205 53 113
116 19 206 43 113
116 17 230 39 113
112 16 236 38 113
115 17 246 33 113
112 24 355 71 114
109 24 355 72 114
110 23 366 76 114
108 24 381 80 114
109 24 391 84 115
108 28 422 92 115
109 28 405 92 115
113 29 418 98 115
110 29 413 97 115
114 29 414 99 116
114 25 361 82 116
115 26 365 82 116
119 26 365 82 116
115 26 357 76 117
119 26 347 74 117
119 26 360 71 117
117 24 357 74 117
121 23 337 67 117
118 24 336 66 118
116 24 348 66 118
118 22 319 61 118
115 21 317 60 118
119 22 320 59 118
117 21 332 67 118
117 22 361 71 119
120 17 334 67 119
114 21 359 79 119
116 20 349 78 119
117 20 344 77 119
115 19 319 74 119
119 23 327 80 120
114 23 326 80 120
112 27 348 87 120
113 27 325 80 120
108 24 269 71 120
111 24 255 75 120
110 22 209 59 121
111 22 211 59 121
115 23 209 65 121
110 31 249 78 121
113 27 222 69 121
112 27 242 73 121
115 29 204 71 122
117 29 212 69 122
115 37 274 82 122
120 37 286 82 122
120 38 294 82 122
120 44 364 108 122
130 43 353 100 122
127 40 366 101 123
128 46 423 120 123
129 46 417 118 123
121 47 464 120 123
126 48 468 121 123
122 42 453 125 123
122 43 453 129 123
124 43 454 129 123
116 32 394 104 124
113 32 389 102 124
112 32 373 101 124
112 24 301 82 124
115 25 303 82 124
114 13 190 63 124
120 28 295 88 124
121 28 265 77 124
116 29 273 74 124
121 32 324 83 125
117 32 318 81 125
115 32 330 85 125
118 32 330 85 125
115 32 336 85 125
119 32 336 86 125
117 32 339 86 125
114 17 229 57 125
116 19 233 57 125
112 24 245 61 125
114 20 187 55 125
114 20 199 57 125
112 21 200 58 125
117 22 200 58 125
112 22 208 59 125
115 21 206 59 125
115 21 201 58 125
113 21 199 59 125
118 21 193 57 125
115 19 160 40 125
117 15 149 36 125
119 14 137 35 125
116 10 100 26 125
119 9 106 26 125
117 9 79 22 125
114 10 80 22 125
118 9 77 24 125
114 10 78 24 124
116 11 80 24 124
116 11 70 23 124
115 11 71 23 124
120 11 70 21 124
114 8 53 17 124
116 9 45 18 124
118 10 54 14 124
115 10 55 18 124
119 6 66 14 123
116 9 78 29 123
119 17 91 41 123
122 18 97 41 123
116 21 102 44 123
116 21 102 48 122
114 22 111 48 122
113 20 114 48 122
117 19 112 48 122
114 19 108 47 122
117 19 105 48 122
117 13 90 38 121
113 11 81 28 121
118 11 75 27 121
115 9 54 18 121
119 8 55 12 121
121 8 46 11 120
118 8 42 6 120
120 7 48 11 120
117 9 51 20 120
116 10 58 20 120
118 10 68 20 119
111 9 68 29 119
115 9 69 29 119
114 10 86 36 118
114 10 88 39 118
117 9 87 40 118
112 9 93 41 117
115 8 74 39 117
115 7 74 36 117
111 7 75 36 116
117 8 74 36 116
114 7 75 28 116
116 7 74 28 115
118 8 54 21 115
114 6 35 17 115
118 5 39 13 114
116 5 49 22 114
115 5 61 25 114
118 5 78 26 113
112 6 79 29 113
116 6 80 29 113
117 7 81 31 112
112 8 81 31 112
116 8 81 31 111
111 8 83 30 111
114 8 75 26 111
114 8 74 23 110
111 7 68 21 110
115 6 47 19 110
114 6 46 15 109
113 6 44 14 109
116 6 34 10 108
109 5 31 11 108
115 5 31 13 108
113 5 32 13 107
111 5 45 15 107
115 4 46 18 106
111 5 46 18 106
115 5 52 17 105
115 5 52 17 105
113 6 69 18 105
116 6 74 18 104
113 5 73 16 104
113 5 81 14 103
115 5 78 13 103
111 5 73 12 103
117 6 71 11 102
115 6 71 11 102
115 6 65 12 102
118 5 73 15 101
113 4 56 12 101
118 4 50 13 100
117 5 53 14 100
117 5 47 14 100
118 5 50 16 99
114 5 56 16 99
112 4 60 16 98
112 6 64 17 98
109 6 64 17 98
113 6 60 14 97
110 7 63 17 97
111 7 60 18 97
112 7 60 18 96
107 7 58 18 96
115 7 56 17 96
112 7 48 17 95
116 7 47 17 95
119 5 48 14 95
114 5 44 13 94
119 6 60 16 94
118 8 67 20 94
114 6 74 19 94
118 6 73 17 93
113 7 73 18 93
115 6 73 18 93
116 6 73 18 92
113 6 72 18 92
117 6 64 17 92
113 7 61 18 91
111 6 53 17 91
114 2 41 9 91
110 2 19 7 91
115 2 20 11 90
114 3 20 10 90
111 4 55 16 90
113 3 57 17 89
107 5 83 26 89
112 5 102 28 89
112 4 102 27 88
110 5 106 30 88
113 5 106 30 88
111 5 107 30 87
111 5 107 30 87
112 5 106 30 87
113 4 82 26 86
119 5 85 26 86
117 4 73 18 86
112 4 43 12 85
116 4 43 12 85
112 3 34 6 85
117 4 33 6 84
115 4 14 5 84
115 4 39 18 84
119 5 60 21 83
112 5 79 23 83
113 5 103 38 83
113 7 115 42 82
113 6 115 42 82
117 7 115 43 81
113 7 130 45 81
113 6 129 45 81
115 7 131 45 80
108 7 120 40 80
112 6 97 37 80
108 6 98 37 79
110 6 88 26 79
113 4 75 18 79
109 4 75 18 79
111 4 74 16 78
110 5 35 9 78
108 5 16 9 78
111 4 20 8 77
109 4 29 8 77
111 4 32 8 77
112 4 46 8 77
107 5 45 7 76
112 8 52 15 76
109 8 54 15 75
111 8 83 21 75
112 10 97 24 75
109 10 97 24 74
115 9 96 25 74
114 9 88 24 74
114 9 89 24 73
118 8 89 24 73
116 8 88 24 73
118 6 79 17 72
118 7 80 18 72
116 7 58 14 72
121 4 19 10 71
116 4 18 11 71
117 4 26 12 70
117 4 25 12 70
113 4 31 11 70
115 4 49 11 69
110 3 53 12 69
113 3 57 14 68
115 3 57 14 68
110 2 62 14 67
113 2 80 15 67
112 2 81 15 66
109 2 72 14 66
112 3 75 16 65
107 3 78 16 65
110 4 80 16 65
110 4 80 15 64
107 6 77 12 64
110 6 77 12 63
107 7 77 13 63
109 6 57 11 62
110 6 42 10 62
108 6 70 14 61
111 7 71 12 61
109 7 81 18 61
107 7 80 18 60
109 8 101 27 60
103 6 120 30 59
109 6 120 30 59
107 6 122 29 58
105 6 116 29 58
107 6 116 29 57
103 6 109 28 57
106 6 110 29 57
106 5 99 26 56
105 5 98 25 56
109 4 82 18 55
107 4 39 8 55
107 3 32 8 55
108 3 34 8 54
105 4 34 8 54
110 4 60 14 53
108 4 73 14 53
108 5 73 16 53
110 5 72 16 52
105 5 79 23 52
109 4 82 25 51
108 4 82 25 51
108 4 91 25 51
112 4 82 25 50
107 3 79 24 50
110 4 72 23 49
110 5 66 23 49
109 4 74 21 49
113 4 74 21 49
110 4 63 13 48
108 3 45 7 48
110 3 46 7 48
105 3 39 8 47
107 3 52 9 47
105 3 69 9 47
105 2 69 9 46
108 2 82 10 46
102 2 83 9 46
105 2 86 9 45
105 2 103 10 45
105 2 103 9 45
108 3 99 9 45
104 3 98 9 44
106 3 96 9 44
107 3 88 9 44
103 4 89 7 43
107 4 71 5 43
104 4 56 5 43
105 4 58 6 43
106 4 28 5 42
102 4 24 5 42
105 4 24 5 42
103 4 24 3 42
103 5 16 5 42
106 4 10 5 41
102 3 8 5 41
106 4 11 7 41
105 4 12 7 41
104 4 14 6 41
109 5 18 6 40
106 5 21 6 40
109 5 31 10 40
109 5 46 10 39
107 5 53 10 39
111 5 53 10 39
108 5 52 9 39
107 6 49 10 38
109 4 49 10 38
104 3 49 10 38
106 3 42 10 38
105 3 37 10 37
104 4 42 7 37
108 4 38 7 37
103 4 33 7 37
104 4 33 7 37
103 4 33 6 36
104 4 29 7 36
107 4 21 9 36
105 7 13 8 36
108 7 9 8 36
109 6 25 8 35
105 6 35 9 35
106 7 35 9 35
104 8 50 11 35
107 10 50 13 35
109 10 59 14 34
104 10 76 13 34
107 10 76 14 34
105 9 75 14 34
105 10 74 15 34
108 10 74 14 33
105 12 74 13 33
108 11 74 13 33
107 10 60 13 33
103 9 59 11 33
106 9 56 8 32
102 9 30 8 32
103 8 11 7 32
105 8 8 7 32
98 7 8 8 32
102 7 8 9 31
100 5 8 9 31
102 9 9 10 31
104 9 16 8 31
102 11 16 9 31
105 11 32 9 30
104 11 50 9 30
100 11 55 12 30
104 12 54 13 30
102 11 59 12 29
105 11 59 13 29
105 11 59 13 29
100 9 57 12 29
104 9 50 12 28
99 5 52 11 28
102 6 54 12 28
102 6 45 12 28
103 7 38 12 27
105 7 40 12 27
103 7 41 13 27
102 8 44 12 27
104 8 44 12 26
102 9 44 12 26
111 11 44 15 26
111 11 43 15 26
106 10 39 13 26
110 8 36 11 25
105 11 40 15 25
107 12 43 14 25
107 12 37 14 25
104 11 31 13 24
107 11 28 13 24
103 11 29 14 24
97 9 42 9 24
98 9 55 9 24
96 9 63 9 23
101 9 62 10 23
101 5 54 6 23
99 5 47 6 23
103 6 48 5 23
101 6 50 5 22
105 7 51 5 22
104 7 53 4 22
101 8 51 5 22
104 8 40 5 22
101 8 22 6 22
100 9 12 9 22
100 11 13 9 22
99 11 13 9 22
100 10 13 10 22
97 10 19 14 21
97 10 18 14 21
99 11 18 16 21
96 10 17 20 21
101 10 16 19 21
99 10 16 20 21
101 10 17 23 21
104 8 18 23 21
101 7 18 23 21
104 7 18 22 21
103 7 14 20 21
101 6 14 20 21
105 4 14 20 21
103 5 12 14 20
102 5 12 14 20
103 5 12 14 20
96 7 11 9 20
100 7 8 8 20
97 7 8 8 20
97 7 8 8 20
100 7 9 8 20
97 8 9 8 20
96 12 10 10 20
94 11 8 9 19
95 11 7 9 19
99 10 9 9 19
97 11 8 10 19
99 11 8 10 19
99 11 8 9 19
96 11 8 9 19
99 12 9 9 19
97 12 10 9 18
99 9 9 7 18
99 8 9 7 18
101 12 10 9 18
108 13 11 10 18
105 12 12 10 18
105 12 12 10 18
108 12 12 10 17
104 13 12 10 17
109 13 12 10 17
108 12 10 10 17
109 12 10 9 17
115 12 10 10 17
107 9 7 7 17
104 6 5 5 17
105 6 5 5 17
104 6 5 5 17
107 6 6 5 17
105 6 9 8 16
103 6 10 9 16
104 9 12 10 16
100 9 12 10 16
101 9 12 9 16
100 9 12 10 16
97 9 12 10 16
99 10 13 11 16
94 10 13 11 16
100 11 13 11 16
99 11 11 9 16
97 11 10 9 16
102 8 7 7 16
99 9 8 8 16
101 9 8 8 16
101 9 8 7 15
102 7 7 6 15
106 8 7 6 15
103 8 7 7 15
100 7 10 10 15
102 7 10 10 15
97 7 10 11 15
103 8 10 11 15
102 7 9 13 15
100 7 12 13 15
103 7 12 14 15
99 6 14 14 15
101 6 14 15 15
101 6 14 14 15
99 6 12 13 15
102 6 11 13 14
102 9 12 14 14
104 8 12 14 14
105 8 12 13 14
103 8 11 14 14
106 8 11 13 14
102 9 10 12 14
104 9 10 10 13
107 9 10 10 13
105 9 10 11 13
111 9 12 17 13
109 8 18 25 13
105 7 21 36 13
107 10 31 40 12
102 10 32 40 12
108 12 33 42 12
108 10 37 43 12
102 11 37 46 12
107 11 39 45 11
104 11 39 46 11
102 10 38 41 11
104 10 37 39 11
103 8 33 18 10
110 9 28 18 10
107 10 26 19 9
107 9 25 21 9
111 9 18 23 9
112 11 21 21 8
116 10 18 19 8
115 10 16 17 7
114 10 15 13 7
117 9 14 11 6
112 7 11 11 6
112 9 10 13 6
112 9 11 12 5
106 9 11 13 5
111 9 12 13 5
105 8 10 10 4
106 8 10 11 4
108 10 10 14 4
104 10 10 14 4
105 10 10 15 4
104 15 18 18 4
100 17 18 17 4
108 25 24 22 4
111 28 25 28 4
108 27 24 26 4
106 25 21 27 4
103 24 22 26 4
110 26 25 23 4
108 31 31 26 4
107 37 40 36 4
109 37 39 36 4
114 37 39 38 4
110 32 34 34 4
100 23 27 24 4
104 21 24 22 4
106 19 21 22 4
101 19 21 19 4
103 19 22 19 4
101 18 21 19 4
105 13 13 11 4
107 13 12 11 4
100 11 10 9 4
102 11 4 7 4
102 11 7 10 4
101 9 8 10 4
106 9 8 10 4
103 9 14 10 4
103 9 18 15 4
104 8 17 15 4
104 11 18 24 4
108 12 18 25 4
106 12 18 25 4
112 10 18 24 4
115 10 18 24 4
110 11 17 24 4
115 10 17 24 3
114 9 14 24 3
113 11 10 20 3
117 11 21 18 3
112 10 25 12 3
113 10 27 12 3
113 10 28 13 3
108 10 43 14 3
113 10 57 14 3
110 8 61 14 3
106 7 62 15 3
108 7 65 15 3
105 6 67 15 3
107 6 67 16 3
104 5 65 17 3
104 5 62 17 3
107 4 62 15 3
103 4 62 14 3
104 6 47 14 4
103 6 35 16 4
106 9 53 16 4
107 9 62 16 4
102 8 60 15 4
106 8 58 13 4
106 7 59 13 4
105 9 60 13 4
110 8 62 14 4
107 8 59 14 4
108 8 54 14 5
108 8 54 14 5
104 6 53 14 5
109 6 62 14 5
107 6 59 14 6
106 6 75 18 6
108 6 92 17 6
103 5 92 18 7
106 5 93 21 7
105 5 91 19 7
106 7 96 19 8
110 7 99 20 8
105 7 101 22 9
106 8 95 22 9
107 10 101 22 9
106 11 97 21 10
108 11 94 22 10
105 12 95 21 11
111 14 100 17 11
112 15 110 19 12
103 12 103 19 12
110 11 96 19 12
109 10 99 27 13
113 12 100 27 13
113 17 126 30 14
106 22 166 31 14
119 28 173 32 15
120 33 173 38 15
105 31 174 42 16
112 26 170 40 16
111 22 174 38 17
110 20 178 38 17
110 22 174 37 18
105 24 173 37 18
113 26 170 31 19
114 26 116 25 20
104 23 80 27 20
106 16 139 29 21
107 11 153 22 21
108 7 152 20 22
106 7 153 19 22
102 7 149 18 23
107 7 151 19 24
105 7 149 19 24
104 7 129 16 25
104 8 121 18 25
101 8 130 18 26
107 8 94 15 26
106 8 103 14 27
105 8 108 14 27
105 9 112 21 28
104 9 132 22 28
106 8 131 21 29
103 9 135 22 29
108 9 135 22 30
111 8 147 33 30
110 10 154 35 31
109 9 160 33 31
107 7 193 43 32
109 6 198 45 32
112 8 193 43 33
107 8 181 42 33
109 8 181 42 34
109 9 178 42 34
102 11 180 42 35
103 11 168 33 35
98 9 162 30 36
102 7 161 30 36
103 6 97 16 37
96 6 84 13 37
98 6 92 15 38
97 6 88 15 38
98 7 88 15 39
100 9 85 15 39
96 9 84 15 40
100 8 79 16 40
99 9 59 14 41
96 9 68 16 41
101 10 74 18 42
98 10 65 18 42
102 10 59 16 43
103 11 62 17 44
103 11 64 18 44
106 10 78 19 45
103 10 99 25 45
105 9 97 26 46
108 7 101 26 46
105 8 95 26 47
108 6 93 25 47
106 7 95 24 48
109 9 94 25 48
112 9 96 21 49
106 8 93 21 49
111 8 90 24 50
111 8 83 26 50
110 8 77 22 51
111 8 87 32 51
107 7 91 32 52
109 8 98 32 52
111 8 97 34 53
107 5 115 37 53
113 7 111 41 54
110 7 107 42 54
115 8 108 42 55
116 8 94 37 55
111 8 94 36 56
116 8 90 32 56
115 8 76 30 57
113 8 75 30 57
116 8 103 24 58
111 7 87 22 58
114 6 88 28 59
114 9 100 38 59
108 7 97 34 60
112 7 140 45 60
110 8 163 59 60
112 8 162 59 61
112 9 170 60 61
110 9 167 59 62
114 10 177 60 62
113 10 178 61 63
110 10 179 57 63
112 8 174 46 64
108 9 173 42 64
114 9 156 39 65
113 10 144 31 65
108 11 178 37 65
112 10 169 38 66
110 10 178 45 66
112 9 155 43 67
112 7 159 45 67
111 7 161 45 68
116 8 182 50 68
113 10 182 50 68
112 10 185 50 69
114 9 186 47 69
113 8 150 39 70
118 8 154 41 70
115 8 150 37 70
112 8 153 37 71
114 7 139 30 71
107 7 141 30 72
109 8 116 26 72
109 6 103 25 72
105 7 114 38 73
107 7 110 37 73
103 8 129 37 74
101 8 140 39 74
102 8 136 38 74
101 7 149 38 75
106 7 172 43 75
105 8 170 47 75
105 8 182 46 76
107 8 199 47 76
102 7 186 39 76
106 6 190 39 77
104 6 180 39 77
106 6 169 35 77
106 6 179 34 78
104 6 174 36 78
107 6 174 31 78
107 5 175 27 79
105 7 169 30 79
109 7 149 28 79
105 7 166 34 80
109 7 166 35 80
110 8 190 40 80
107 8 189 40 80
111 8 181 41 81
106 9 176 40 81
107 9 166 44 81
109 9 164 44 82
106 8 182 43 82
111 8 183 46 82
110 8 176 42 82
108 9 176 41 83
109 8 168 40 83
105 8 200 44 83
112 8 201 42 84
112 9 213 42 84
109 10 224 45 84
115 11 224 45 84
112 11 225 48 85
112 12 227 45 85
113 12 229 43 85
111 11 222 43 86
118 11 219 40 86
115 12 196 35 86
114 10 196 38 86
117 10 194 38 87
113 10 170 23 87
115 9 185 25 87
113 9 166 22 87
113 8 166 25 88
117 10 160 31 88
113 10 170 35 88
120 10 202 36 88
121 9 204 36 89
119 10 210 37 89
120 10 216 41 89
116 11 224 45 89
116 11 212 43 89
118 11 224 44 90
114 11 225 44 90
118 10 221 41 90
115 10 233 39 91
117 12 199 37 91
125 12 192 37 91
121 11 193 35 91
123 10 178 31 91
123 10 173 25 92
118 10 183 23 92
121 9 161 19 92
117 9 159 22 92
120 11 172 23 93
121 9 168 28 93
113 10 205 28 93
111 11 227 31 93
108 12 252 38 93
111 17 274 49 94
114 17 270 48 94
114 17 281 50 94
120 17 281 50 94
118 17 280 49 94
117 17 275 49 94
119 17 258 45 95
113 15 226 44 95
115 15 213 44 95
113 14 174 39 95
114 4 126 19 95
116 3 123 18 96
113 3 113 21 96
117 3 118 21 96
119 4 132 22 96
113 6 143 26 96
117 6 144 22 96
113 6 154 26 96
114 6 157 28 96
118 8 165 31 97
113 8 185 37 97
117 9 186 39 97
116 9 169 34 97
110 9 189 41 97
111 9 176 41 97
109 9 187 40 97
113 9 196 40 97
113 8 175 37 97
112 7 182 34 97
116 9 185 33 97
113 9 163 32 97
113 9 161 30 97
114 9 162 31 97
109 10 142 26 97
115 10 189 25 97
112 9 202 27 97
112 10 216 28 97
114 11 238 30 97
109 11 241 30 98
113 10 241 29 98
112 9 241 25 98
112 10 242 24 98
115 9 243 25 98
114 8 245 23 98
116 8 199 24 98
116 8 178 23 98
114 8 152 22 98
122 6 123 23 98
118 6 138 23 98
117 6 156 24 98
119 6 156 18 98
119 8 168 16 98
124 7 178 17 98
122 8 171 23 98
123 8 174 26 98
126 7 174 25 99
122 7 173 25 99
125 7 173 24 99
125 9 148 24 99
125 9 139 24 99
130 9 137 27 99
123 9 132 27 99
126 12 151 43 99
127 11 159 41 99
122 11 178 48 99
124 13 188 54 99
120 13 189 54 99
115 15 194 53 99
117 15 200 53 99
108 15 202 52 99
116 16 206 52 99
115 17 202 52 100
111 14 192 33 100
114 14 180 29 100
110 14 165 22 100
113 14 156 13 100
112 14 157 18 100
112 12 152 20 100
118 11 135 23 100
116 12 119 20 101
111 11 101 23 101
112 9 102 26 101
109 9 129 29 101
114 9 142 35 101
111 10 145 35 101
112 10 163 35 101
115 10 166 33 102
113 10 154 32 102
117 10 156 29 102
115 10 156 30 102
117 9 157 30 102
119 8 175 29 102
115 8 152 26 102
118 8 144 22 103
117 8 141 22 103
117 9 153 26 103
118 8 147 26 103
117 10 166 28 103
118 11 181 34 104
121 11 182 33 104
121 11 206 35 104
128 12 191 34 104
124 11 192 34 104
125 11 192 33 105
128 11 191 32 105
123 9 175 30 105
129 8 205 30 105
126 8 187 29 105
125 7 174 23 106
127 8 195 30 106
120 8 171 31 106
123 11 177 36 106
123 11 175 36 106
122 12 181 36 107
127 11 185 36 107
124 11 185 37 107
125 13 182 41 107
127 13 185 42 107
122 13 182 41 107
127 12 180 42 108
124 12 179 41 108
122 11 209 36 108
126 11 208 37 108
120 10 198 38 108
124 10 198 38 109
124 10 196 37 109
122 9 208 35 109
126 9 215 32 109
122 9 221 35 109
124 11 217 32 110
125 11 216 36 110
122 13 211 38 110
126 13 208 38 110
122 14 214 36 110
122 13 212 36 110
123 13 207 34 110
119 13 196 36 111
123 13 194 36 111
121 13 199 34 111
121 13 209 34 111
123 14 208 30 111
119 13 210 27 112
121 12 211 25 112
121 12 206 25 112
121 12 210 27 112
126 12 211 30 112
122 12 191 27 112
125 12 184 29 113
126 12 172 30 113
121 10 155 30 113
126 10 155 28 113
122 10 178 44 113
123 11 175 44 113
126 12 192 48 114
121 12 202 47 114
125 12 197 44 114
123 14 218 47 114
122 15 218 47 114
125 16 228 48 114
121 17 224 48 115
123 17 224 49 115
123 16 201 39 115
120 17 201 40 115
125 17 194 39 115
120 17 183 40 115
120 15 185 40 116
121 17 216 56 116
116 16 218 55 116
119 15 219 59 116
117 16 241 62 116
120 17 241 62 116
123 17 233 61 117
120 16 234 60 117
123 16 238 59 117
122 16 232 59 117
121 16 230 59 117
127 12 190 40 117
124 16 211 45 118
127 16 211 40 118
128 14 191 32 118
121 14 198 32 118
126 13 187 28 118
122 13 187 29 118
123 13 176 31 118
125 13 196 44 118
121 14 204 44 118
122 19 234 47 119
119 17 236 47 119
123 17 229 54 119
127 17 236 53 119
124 17 233 67 119
126 17 236 75 119
125 18 238 74 119
126 24 257 80 119
129 24 243 71 120
124 22 223 71 120
128 20 198 71 120
129 19 178 74 120
121 19 181 67 120
125 19 178 67 120
122 19 176 55 120
123 18 159 41 120
124 18 174 45 121
117 15 165 51 121
119 16 159 51 121
118 21 204 64 121
115 21 206 66 121
119 19 197 66 121
115 19 192 68 121
119 19 188 70 121
119 21 199 72 121
118 18 198 74 122
122 18 188 70 122
120 15 163 53 122
125 15 162 53 122
127 11 111 47 122
121 11 109 45 122
127 13 101 38 122
124 13 102 37 122
122 11 98 33 122
123 10 58 24 122
118 10 62 22 123
121 10 35 21 123
119 12 33 19 123
116 12 51 21 123
120 14 50 16 123
118 14 51 14 123
121 11 54 13 123
121 10 58 16 123
119 10 64 15 123
125 11 63 15 123
122 12 64 16 123
124 12 59 15 123
126 12 56 16 122
124 11 50 15 122
128 8 50 13 122
125 9 49 13 122
124 9 47 16 122
127 9 36 14 122
122 10 28 13 122
124 9 22 14 122
122 6 21 13 122
123 6 26 14 122
126 6 29 14 121
121 6 28 14 121
126 7 28 14 121
126 7 39 15 121
124 6 39 18 120
129 7 53 18 120
126 7 61 18 120
127 7 65 18 120
129 7 66 18 119
125 8 65 17 119
129 9 63 17 119
126 9 62 16 118
124 10 63 19 118
127 11 54 17 117
121 11 51 12 117
124 12 43 13 117
123 11 35 12 116
121 11 19 11 116
125 11 19 13 115
121 7 24 13 115
124 8 24 13 115
124 8 36 14 114
121 4 34 12 114
126 4 34 12 113
123 5 35 12 113
123 5 37 10 112
125 5 38 10 112
121 5 38 10 111
124 5 41 7 110
122 6 41 7 110
122 6 49 7 109
125 4 50 6 109
120 4 57 7 108
123 6 75 19 108
123 7 78 21 107
121 7 76 21 107
125 7 74 21 106
122 7 75 21 105
124 7 73 22 105
125 7 73 21 104
121 7 67 21 104
127 7 56 20 103
123 7 54 17 103
124 6 30 11 102
128 6 28 10 102
124 7 32 10 101
127 7 33 9 101
126 7 46 10 100
123 9 57 8 99
127 9 57 8 99
122 7 57 7 98
130 6 57 8 98
130 5 57 8 97
126 6 58 11 97
131 7 49 11 96
127 7 39 10 95
131 9 40 10 95
131 10 34 9 94
129 9 17 10 94
136 8 17 10 93
134 9 19 10 93
130 7 23 10 92
132 5 25 9 92
129 5 21 8 91
130 5 24 13 91
128 5 24 14 91
124 5 26 21 90
130 5 61 23 90
127 5 68 24 89
125 6 68 25 89
125 5 66 27 88
122 6 64 27 88
127 5 65 26 87
123 4 64 26 87
126 3 64 24 86
127 3 67 23 86
122 3 67 20 86
123 3 45 16 85
120 3 30 12 85
121 3 30 12 84
123 3 30 10 84
118 3 44 11 84
121 4 45 12 83
120 5 45 13 83
115 5 43 12 83
118 4 46 15 82
116 4 49 15 82
119 4 48 15 81
120 4 47 14 81
115 4 42 15 81
122 3 39 16 80
118 3 34 18 80
117 3 31 16 79
120 3 30 16 79
115 5 26 21 79
119 5 28 19 78
117 5 25 21 78
115 5 25 20 77
118 6 27 20 77
113 5 30 21 77
115 5 40 20 76
114 5 37 18 76
113 4 53 18 75
116 4 57 19 75
112 4 57 16 75
114 4 58 16 74
116 5 67 16 74
113 5 71 16 73
117 5 70 15 73
114 5 69 18 72
115 5 58 19 72
118 5 57 19 71
113 6 51 19 71
117 6 50 18 70
116 7 59 22 70
116 7 61 22 70
119 6 50 20 69
116 6 48 25 69
118 6 61 25 68
118 7 58 23 68
114 6 64 25 67
118 6 63 26 67
114 9 66 25 66
115 9 76 26 65
116 7 73 23 65
109 7 74 23 64
113 6 78 23 64
109 5 76 21 63
115 5 71 24 63
116 6 72 24 62
112 6 66 21 62
114 8 65 21 61
114 7 67 21 61
112 7 59 24 60
113 7 54 24 60
112 7 49 24 60
113 9 55 25 59
113 11 61 22 58
103 11 53 18 58
111 11 77 25 57
108 11 96 27 57
109 8 96 30 57
111 8 96 30 56
108 8 101 27 55
114 9 101 27 55
111 9 101 27 54
111 8 100 24 54
114 6 91 24 54
112 5 90 23 53
113 5 82 18 53
112 6 67 16 52
111 6 64 8 52
113 6 63 9 52
107 6 60 9 51
111 6 75 18 51
111 5 79 18 50
109 4 89 23 50
113 4 137 35 49
109 4 153 34 49
110 5 152 35 49
111 7 153 36 48
106 7 152 38 48
112 8 152 38 47
112 7 152 39 47
107 7 140 35 47
110 6 131 36 46
107 6 129 34 46
106 5 90 16 46
105 3 46 15 45
103 4 42 17 45
107 5 48 17 45
104 6 48 16 45
103 6 48 16 44
104 7 47 16 44
102 7 59 16 44
104 7 63 15 43
100 7 61 10 43
104 8 40 11 43
105 9 42 10 42
98 7 43 10 42
103 8 69 13 42
102 8 84 12 41
101 8 83 13 41
103 8 115 18 41
99 8 140 18 40
102 7 142 19 40
101 8 143 20 40
97 8 148 20 39
102 9 148 20 39
100 8 148 20 39
101 5 136 19 38
101 4 121 20 38
97 4 125 20 38
102 4 108 16 37
101 8 60 17 37
102 8 51 18 37
105 8 53 18 37
104 9 45 18 36
105 9 45 18 36
103 11 46 18 36
106 13 57 20 35
108 12 65 17 35
104 10 59 15 35
106 10 48 18 35
106 11 65 19 34
107 16 67 21 34
107 19 67 22 34
102 22 69 24 33
110 25 66 27 33
110 27 76 30 33
98 24 72 25 32
107 20 60 18 32
106 15 55 19 32
107 14 57 22 31
109 13 50 21 31
105 13 49 22 31
111 15 48 22 30
110 15 39 23 30
104 15 46 22 30
109 11 48 15 29
107 9 43 11 29
102 8 44 9 29
102 7 45 9 28
98 7 45 9 28
101 7 45 8 28
96 10 43 9 27
100 12 38 10 27
102 13 34 14 27
97 13 32 14 26
105 13 27 14 26
104 10 27 13 26
104 10 27 13 25
107 9 24 13 25
104 8 24 12 25
109 7 24 16 24
109 7 27 17 24
104 6 39 16 24
108 5 43 12 23
106 9 44 12 23
101 11 50 13 22
101 11 57 12 22
101 11 56 13 22
106 11 57 14 21
102 11 57 15 21
99 13 60 13 21
100 13 59 12 20
98 12 48 14 20
102 13 41 14 20
100 11 41 14 20
102 9 36 12 19
106 9 24 12 19
103 11 26 9 19
101 14 26 12 18
100 13 25 10 18
100 12 15 12 18
103 16 13 16 18
99 14 11 13 17
98 15 11 13 17
99 14 9 12 17
91 13 8 12 17
95 13 8 11 17
92 15 11 11 16
96 16 11 13 16
96 17 12 13 16
92 16 13 13 16
96 10 10 9 16
93 9 10 9 15
92 9 10 9 15
96 9 10 9 15
96 6 9 6 15
96 5 8 9 15
96 7 8 10 15
93 6 8 12 15
96 7 8 13 14
93 7 7 14 14
96 7 6 15 14
97 8 6 16 14
96 8 7 16 14
101 8 7 17 14
99 8 7 17 14
100 8 9 16 14
102 7 10 15 13
98 8 11 17 13
101 6 11 16 13
100 8 11 15 13
97 8 12 15 13
101 7 11 15 13
97 7 11 15 13
96 7 10 15 13
95 7 10 14 13
92 9 10 14 13
98 8 7 12 13
96 11 6 12 13
98 11 11 14 13
99 11 14 21 12
97 12 15 22 12
101 13 14 22 12
98 12 15 23 12
100 11 14 21 12
104 7 14 21 12
102 8 15 23 12
105 8 15 23 12
104 7 15 22 12
104 8 10 20 12
108 8 12 15 12
103 6 10 13 12
104 6 10 11 12
105 6 14 14 12
104 8 17 20 11
108 8 17 20 11
105 8 17 19 11
106 9 18 19 11
108 9 18 21 11
106 9 19 22 11
108 9 18 21 10
107 10 19 22 10
109 10 19 25 10
114 11 18 28 10
108 10 18 26 10
111 10 18 26 9
111 11 18 26 9
107 10 16 26 9
109 10 17 27 9
103 10 16 26 9
106 10 16 26 8
108 9 15 27 8
103 9 15 23 8
104 6 14 15 8
103 7 13 13 8
99 9 12 13 7
101 9 11 12 7
96 10 14 14 7
98 12 18 11 7
96 12 17 11 7
94 12 17 12 7
95 8 17 11 7
92 8 18 18 6
93 7 19 19 6
92 8 19 20 6
94 9 19 19 6
98 9 19 19 6
96 12 16 17 6
100 9 12 17 6
102 9 12 18 5
102 12 14 18 5
105 12 13 20 5
103 13 12 19 5
108 15 19 20 5
111 15 19 20 5
107 15 19 20 5
108 16 20 18 4
108 14 20 20 4
107 14 21 21 4
109 14 21 20 4
103 12 20 20 4
108 12 20 20 4
108 11 21 16 4
102 5 12 13 4
103 6 12 13 4
100 5 15 13 4
106 11 15 13 4
107 13 12 21 3
102 13 12 22 3
106 13 15 23 3
103 13 15 22 3
104 12 15 23 3
106 12 14 24 3
103 12 15 24 3
109 13 15 24 3
107 13 12 24 3
101 10 11 24 2
104 9 11 15 2
103 8 13 15 2
109 10 10 14 2
108 10 9 14 2
102 10 15 13 2
105 11 18 17 2
103 10 19 20 2
102 9 20 20 1
107 14 21 26 1
104 14 21 27 1
107 17 21 26 1
104 18 24 26 1
100 19 24 27 1
104 19 28 36 1
103 19 26 36 1
108 19 24 33 1
108 19 22 32 1
111 22 21 33 1
110 18 21 29 1
107 17 22 29 0
113 9 21 29 0
114 10 18 29 0
112 10 17 28 0
115 9 8 16 0
112 10 8 14 0
113 10 8 7 0
114 10 8 8 0
107 6 6 7 0
113 6 6 7 0
110 7 5 7 0
111 9 10 6 0
116 11 11 7 0
112 12 13 9 0
113 13 16 9 0
113 13 16 9 0
109 13 17 9 0
114 13 17 8 0
110 14 17 8 0
110 14 18 8 0
111 14 17 9 0
105 11 27 9 0
106 9 29 7 0
104 7 29 7 0
106 7 24 8 0
108 7 32 7 0
105 7 37 7 0
106 7 37 7 0
105 4 49 8 0
104 4 55 9 0
107 4 56 10 1
103 5 79 10 1
104 5 114 10 1
104 5 129 10 1
103 5 130 9 1
106 4 130 11 1
102 4 131 11 2
104 4 131 11 2
106 4 125 11 2
101 4 120 10 3
104 3 119 10 3
103 3 121 10 3
104 4 99 10 4
105 5 68 9 4
98 6 55 10 5
104 6 52 7 5
103 5 51 6 5
100 4 68 8 6
103 5 120 20 6
100 5 149 21 7
104 6 157 21 7
104 7 157 21 8
100 7 154 21 8
104 7 151 21 9
102 5 141 20 9
103 6 130 19 10
105 5 121 21 10
103 5 135 21 11
105 5 119 13 11
103 5 91 12 12
103 5 73 17 12
106 5 65 14 13
102 5 55 13 14
109 6 94 16 14
109 7 124 23 15
105 5 127 23 15
108 6 122 22 16
105 6 111 22 16
109 8 107 24 17
108 9 108 25 17
103 9 104 19 18
107 9 93 16 18
104 10 95 15 19
102 9 91 18 19
104 11 71 17 20
100 12 59 18 20
104 12 66 18 21
102 12 83 24 21
99 10 89 23 22
102 6 89 22 22
99 6 89 25 23
102 7 89 25 24
102 10 96 28 24
98 12 91 28 25
103 11 79 25 25
101 9 78 28 26
102 8 94 31 26
102 7 93 32 27
100 7 103 33 27
104 6 102 33 28
101 5 102 31 28
103 5 103 31 29
105 6 98 29 29
105 9 95 28 30
106 8 98 28 30
104 8 91 25 31
104 8 75 21 31
107 8 66 14 32
105 8 40 12 32
108 7 38 16 33
108 7 39 14 33
105 21 43 16 33
112 22 40 16 34
108 22 40 19 34
109 26 39 20 35
110 30 42 21 35
106 31 43 21 36
109 31 46 21 36
105 32 45 21 36
105 32 47 18 37
108 32 57 19 37
103 22 80 19 38
103 17 81 18 38
102 17 101 18 39
101 15 114 18 39
105 9 116 16 40
101 8 116 16 40
107 8 118 21 40
107 10 122 21 41
103 11 129 21 41
108 10 125 18 42
105 11 106 17 42
109 13 106 22 42
110 14 102 23 43
107 15 106 26 43
115 16 109 26 44
113 18 116 42 44
110 17 111 43 45
113 14 131 44 45
111 9 141 49 45
113 11 139 50 46
112 13 134 50 46
109 13 129 49 47
114 13 142 49 47
111 15 129 47 48
106 15 136 47 48
108 12 125 27 48
109 11 127 28 49
112 9 123 27 49
109 7 112 20 50
111 7 114 23 50
114 11 115 24 50
108 15 121 29 51
110 18 101 27 51
108 17 101 28 52
112 15 96 34 52
113 15 98 34 52
107 14 95 29 53
111 13 93 31 53
110 12 90 33 54
108 13 113 35 54
110 13 121 34 54
106 11 112 29 55
113 7 124 29 55
113 9 123 29 56
108 9 119 22 56
113 10 110 22 56
110 10 115 23 57
114 11 113 29 57
116 13 119 34 57
110 15 112 32 58
115 16 93 31 58
114 15 136 37 59
110 15 132 37 59
115 11 132 37 59
109 9 138 39 60
112 9 139 38 60
110 10 133 38 60
104 9 130 29 61
106 9 125 25 61
103 9 109 25 61
106 8 122 29 62
106 8 87 23 62
101 7 80 22 62
102 7 93 28 63
102 6 85 27 63
98 6 84 27 63
99 6 84 27 64
95 6 120 29 64
102 6 141 32 65
102 5 142 33 65
102 6 170 49 65
106 7 176 49 66
105 9 178 49 66
107 9 180 47 66
107 10 181 47 67
107 10 190 47 67
112 10 191 47 67
109 11 175 47 68
108 9 157 43 68
109 9 159 43 68
105 9 125 18 69
109 9 107 18 69
106 8 110 18 69
109 7 106 23 70
113 8 105 27 70
109 8 93 26 70
111 7 96 32 71
110 6 84 31 71
109 6 74 32 72
113 7 71 32 72
109 7 70 33 72
111 8 82 39 73
112 8 79 39 73
109 8 61 37 73
112 6 60 34 74
110 6 60 34 74
114 7 51 29 74
116 8 51 28 75
112 8 48 26 75
118 6 54 23 75
116 6 55 21 76
116 6 42 11 76
119 6 46 18 76
114 6 55 20 77
117 9 57 19 77
116 10 79 19 78
115 11 89 18 78
120 11 107 19 78
118 11 118 20 79
115 11 121 23 79
116 11 128 25 79
112 13 128 24 80
116 13 127 22 80
113 13 121 20 80
114 11 119 20 81
117 11 111 20 81
110 10 107 22 81
113 9 83 20 82
111 9 42 16 82
116 9 69 17 82
118 8 65 16 83
115 7 71 18 83
120 7 72 19 83
120 6 75 19 84
118 8 81 22 84
122 8 99 37 84
118 7 96 35 85
120 7 96 35 85
122 7 126 40 85
118 7 122 41 86
127 8 125 42 86
124 10 125 41 86
121 11 125 41 86
123 12 132 45 87
118 13 134 42 87
125 13 122 30 87
124 14 113 28 88
124 15 118 29 88
128 15 98 25 88
122 15 130 25 89
118 14 132 31 89
118 10 161 34 89
117 11 162 36 89
121 10 160 32 90
118 10 161 35 90
115 9 158 36 90
116 8 160 35 90
110 5 159 35 91
116 5 156 35 91
114 5 138 34 91
111 10 138 26 92
113 12 102 21 92
107 13 133 27 92
115 17 133 27 92
113 16 161 32 93
112 17 167 29 93
116 17 175 35 93
114 18 189 41 94
111 18 197 41 94
111 18 193 41 94
112 14 200 42 95
120 14 200 41 95
119 15 199 48 95
117 12 211 50 95
119 12 193 45 96
117 11 203 47 96
122 11 199 44 96
119 10 202 41 97
122 12 213 43 97
124 12 212 50 97
120 15 210 49 97
123 15 205 50 98
122 15 196 45 98
120 15 177 43 98
126 14 174 44 99
120 16 158 42 99
122 16 151 41 99
122 15 134 40 99
119 13 102 38 100
124 14 102 33 100
121 11 74 31 100
121 13 82 33 100
125 12 89 29 101
121 12 80 29 101
124 13 81 30 101
122 13 66 29 101
117 15 71 30 102
124 15 70 29 102
117 13 83 32 102
122 12 105 28 102
122 11 111 28 103
118 11 107 26 103
119 12 102 27 103
116 13 111 27 103
116 14 124 33 104
116 14 126 32 104
117 10 119 35 104
120 11 136 35 104
119 12 130 31 105
119 13 138 43 105
121 12 132 42 105
119 13 156 44 105
125 12 178 45 106
124 11 175 47 106
123 12 206 50 106
126 12 205 50 107
121 12 208 47 107
121 12 201 48 107
122 13 225 49 107
116 16 226 43 107
120 16 252 50 108
114 19 251 51 108
114 19 232 54 108
116 19 243 58 108
113 17 215 57 109
118 19 242 69 109
116 19 239 69 109
116 21 253 72 109
118 21 227 71 110
114 17 207 70 110
119 17 186 67 110
117 15 173 65 110
117 15 173 62 111
121 14 150 54 111
117 14 157 53 111
121 12 114 33 111
121 9 116 33 112
119 7 118 32 112
123 7 117 26 112
120 8 130 28 112
120 8 126 25 113
122 8 132 25 113
118 12 146 26 113
122 14 184 43 113
119 14 183 42 114
120 15 179 42 114
123 15 185 44 114
118 15 182 44 114
121 19 194 46 114
120 20 195 49 115
119 20 206 49 115
123 20 202 48 115
120 18 194 47 115
121 17 160 33 116
122 16 155 33 116
116 19 170 51 116
122 20 156 45 116
119 20 171 55 116
122 16 160 54 117
123 17 196 55 117
118 18 180 55 117
122 18 196 58 117
119 19 207 58 117
117 20 207 58 118
123 20 208 61 118
120 15 183 43 118
121 16 200 49 118
120 18 185 41 118
117 17 183 42 119
122 16 143 34 119
120 23 221 58 119
124 23 213 58 119
125 22 228 59 120
123 22 251 62 120
126 21 255 65 120
123 24 286 68 120
125 25 288 69 120
127 25 293 73 120
126 25 301 74 121
133 31 310 75 121
129 29 301 77 121
127 30 314 78 121
129 32 307 78 121
126 35 335 88 121
129 35 333 88 122
128 34 316 87 122
126 35 319 86 122
132 35 324 84 122
125 39 361 90 122
124 34 340 90 122
125 34 328 76 122
123 35 324 78 123
127 33 317 78 123
124 35 312 68 123
121 36 320 63 123
125 35 307 63 123
119 34 291 60 123
121 35 302 63 123
120 35 256 55 123
117 40 304 62 123
123 42 311 63 123
120 42 304 64 123
126 44 328 78 124
126 40 292 77 124
124 39 288 78 124
126 39 297 77 124
123 39 302 77 124
123 39 315 75 124
124 33 308 75 124
121 27 265 68 124
124 24 246 65 124
120 20 232 57 124
117 18 199 43 124
120 18 196 42 124
116 18 192 41 124
121 16 177 40 124
120 16 174 40 124
123 14 112 35 124
127 15 94 38 124
124 15 94 39 124
126 15 86 38 124
127 17 91 38 124
122 16 92 24 124
126 14 85 24 124
123 14 81 25 124
121 14 77 21 124
122 14 72 21 124
116 13 64 19 124
121 9 67 17 124
118 8 63 13 124
117 9 47 14 124
121 8 47 15 124
120 9 45 15 124
122 9 39 16 124
121 8 38 14 124
122 8 40 15 124
125 10 49 20 123
121 9 51 21 123
120 10 50 20 123
121 9 48 19 123
118 10 49 22 123
122 10 47 25 123
118 11 56 25 122
120 10 56 25 122
122 12 56 25 122
119 12 52 25 121
125 11 35 21 121
123 11 42 21 121
124 10 55 22 121
126 10 54 22 120
121 9 54 18 120
124 10 54 14 120
124 10 47 14 119
122 11 47 12 119
126 8 47 12 119
121 8 47 12 118
122 8 48 7 118
122 9 51 8 118
118 7 44 7 117
123 5 44 6 117
120 7 49 11 117
120 6 48 11 116
122 6 47 11 116
118 6 46 10 115
122 8 48 11 115
120 9 50 18 115
120 9 36 18 114
125 10 35 18 114
121 10 36 21 113
122 10 35 21 113
122 8 35 20 112
121 9 50 21 112
125 8 49 20 111
120 7 56 21 111
122 6 56 21 110
123 6 59 15 110
118 5 71 18 109
125 5 71 18 109
122 6 76 14 108
121 6 80 14 108
123 7 82 12 107
118 6 77 14 107
116 7 79 14 106
115 7 75 16 106
106 7 75 14 105
113 7 74 17 105
112 7 61 16 104
113 7 61 16 104
113 6 56 17 103
112 6 50 19 103
117 4 43 21 102
112 4 40 19 102
118 4 37 20 102
121 4 39 19 101
122 4 49 20 101
124 4 45 22 100
118 6 46 22 99
116 5 48 22 99
119 7 56 22 98
113 7 64 20 98
119 7 68 18 97
118 6 63 18 97
118 6 65 17 96
121 6 67 17 96
117 6 64 16 95
119 7 65 10 95
119 6 63 13 94
118 7 56 14 94
125 6 54 13 94
124 6 49 13 93
121 6 41 13 93
123 6 45 12 92
118 6 44 11 92
124 7 51 15 91
122 7 51 16 91
122 7 52 14 91
124 7 53 15 90
118 5 53 14 90
120 5 51 13 89
118 5 51 15 89
119 5 48 16 88
123 5 55 18 88
119 5 56 18 87
120 5 43 15 87
120 6 50 15 86
118 5 51 15 86
120 5 48 13 86
117 6 46 11 85
118 5 50 12 85
120 5 47 14 84
115 4 47 13 84
119 5 35 9 84
117 7 33 7 83
118 6 30 7 83
122 6 34 8 82
117 5 76 20 82
122 5 98 23 82
122 5 101 23 81
118 5 100 23 81
123 5 99 22 80
119 5 100 22 80
121 5 98 22 79
121 3 93 21 79
116 2 92 21 79
119 2 85 20 78
117 6 72 13 78
116 7 46 8 78
118 7 37 7 77
115 7 40 9 77
116 8 47 9 76
115 8 54 12 76
111 8 47 12 76
116 8 101 19 75
112 8 136 20 75
115 8 150 22 74
115 2 154 25 74
113 2 161 25 73
116 4 161 28 73
112 4 160 28 73
113 5 156 28 72
115 5 141 25 72
113 5 136 26 71
116 5 124 25 71
115 5 95 24 70
117 5 62 23 70
119 5 58 18 70
114 4 44 18 69
118 7 53 19 69
117 7 62 21 68
113 6 76 20 68
117 6 82 19 68
113 7 84 20 67
113 7 84 21 67
112 7 93 27 66
105 7 100 30 66
110 7 98 30 65
107 7 105 33 65
105 3 91 30 64
106 3 89 29 64
106 3 82 28 64
110 2 79 28 63
107 3 81 27 63
109 2 86 27 62
112 8 74 20 62
108 8 58 16 61
114 8 59 15 61
114 8 48 10 60
116 8 51 10 60
117 8 45 11 60
112 8 43 11 59
115 8 59 14 59
116 8 82 30 58
111 8 83 33 58
114 6 79 33 57
112 6 83 33 57
108 6 85 32 56
109 7 83 32 56
103 7 82 32 55
110 8 95 33 55
109 9 98 33 54
105 8 97 34 54
108 8 70 24 54
105 8 49 15 53
108 10 58 17 53
107 10 61 18 53
107 10 63 20 52
110 10 76 20 52
107 10 83 24 51
107 9 95 22 51
107 7 102 22 51
108 8 97 20 50
112 8 103 19 50
110 8 105 18 50
110 7 103 18 49
112 6 102 17 49
109 7 99 15 49
113 7 87 18 48
111 7 94 14 48
110 7 81 15 48
114 7 78 15 47
108 5 83 16 47
112 5 77 16 47
112 5 83 17 46
113 7 85 19 46
115 7 84 19 46
110 5 87 18 45
112 5 82 15 45
114 5 74 15 45
111 5 72 13 44
115 6 59 12 44
113 6 62 11 44
111 5 63 10 43
113 5 52 9 43
107 4 47 6 42
111 4 47 7 42
110 4 46 7 42
111 4 46 8 41
113 4 43 6 41
109 4 47 7 41
112 4 53 7 40
112 4 39 9 40
109 4 48 9 40
113 4 52 9 39
110 3 53 12 39
109 3 59 12 39
110 4 57 12 38
104 4 75 14 38
111 8 86 15 38
109 9 84 14 37
108 9 81 15 37
110 10 86 14 36
105 10 83 13 36
107 10 83 13 36
106 10 82 12 36
105 10 74 13 35
108 10 72 13 35
103 10 66 9 35
102 9 50 9 34
103 8 46 7 34
98 7 48 8 34
102 5 46 7 33
100 6 45 8 33
99 6 55 10 33
100 6 66 10 32
98 7 67 11 32
102 7 66 12 32
100 8 65 13 32
99 7 65 13 31
101 4 64 13 31
97 5 61 13 31
99 5 57 13 30
98 6 57 12 30
97 6 46 9 30
100 6 24 10 29
96 5 18 11 29
100 5 18 10 29
100 4 17 9 28
96 4 16 9 28
101 7 15 10 28
99 7 15 13 27
98 7 15 12 27
98 9 18 14 27
97 9 18 14 26
100 10 17 14 26
97 10 18 14 26
97 10 22 14 25
104 14 21 16 25
100 15 20 16 25
108 15 20 15 24
108 15 19 11 24
109 15 18 9 23
113 13 15 9 23
110 14 12 10 22
113 13 12 11 22
113 14 11 12 22
110 13 5 12 21
110 8 5 9 21
108 8 5 9 21
106 6 7 9 20
107 5 7 9 20
104 9 8 6 19
103 9 11 8 19
102 9 11 9 19
103 10 11 9 18
104 10 11 10 18
101 10 11 10 18
103 9 11 9 17
103 9 10 8 17
97 9 10 8 17
103 9 9 5 16
100 7 9 5 16
105 7 7 6 16
106 6 7 6 15
99 7 8 6 15
104 7 8 5 15
100 8 8 5 15
105 8 11 12 14
107 10 11 12 14
102 10 8 14 14
101 9 12 16 14
99 10 12 16 13
102 15 15 21 13
103 16 15 22 13
100 16 15 22 13
105 16 15 23 12
105 16 16 23 12
101 15 14 19 12
107 12 14 19 12
104 12 13 15 12
109 13 12 15 12
109 15 12 14 12
102 12 10 11 11
111 12 10 13 11
110 11 10 12 11
109 10 11 12 11
111 9 11 11 11
106 8 11 11 11
107 7 11 12 11
107 13 15 16 10
104 13 15 16 10
107 13 17 19 10
104 13 17 19 10
105 13 17 18 10
105 13 18 19 10
103 13 17 19 10
106 13 17 21 10
103 13 18 21 10
103 13 19 21 10
104 8 16 19 10
101 7 15 19 9
103 7 15 17 9
102 7 15 15 9
101 7 15 16 9
105 7 14 14 9
99 10 13 14 9
103 10 15 12 9
103 10 13 12 9
104 11 16 13 9
109 11 16 13 9
106 11 16 14 9
109 10 12 18 8
110 9 18 18 8
103 7 18 18 8
106 6 18 17 8
103 5 19 16 8
104 6 17 16 7
104 6 16 17 7
99 6 13 17 7
102 6 14 15 7
101 6 13 14 6
98 6 13 9 6
100 6 9 8 6
99 11 13 23 6
103 10 23 29 6
103 10 23 28 5
100 9 24 30 5
103 9 24 31 5
101 13 24 31 5
102 13 24 32 5
104 13 26 33 4
103 14 26 39 4
107 14 26 40 4
103 10 24 32 4
105 11 13 31 4
107 10 12 30 4
105 10 12 25 3
110 9 12 26 3
108 9 11 29 3
105 10 11 28 3
108 10 8 26 2
104 10 5 19 2
110 13 5 20 2
110 13 5 13 2
105 12 5 13 2
110 12 5 13 1
106 12 5 10 1
109 13 5 11 1
110 11 7 13 1
110 12 9 16 1
113 12 21 15 1
110 14 21 30 1
108 12 26 30 1
111 13 27 32 0
108 16 27 37 0
111 16 27 37 0
110 17 27 38 0
108 17 27 38 0
111 16 27 36 0
107 17 24 35 0
109 17 19 36 0
110 16 19 19 0
107 17 5 17 0
111 16 6 16 0
108 10 6 10 0
112 8 8 16 0
114 8 10 16 0
112 9 11 14 0
114 9 12 14 0
112 7 13 14 0
112 7 13 15 0
115 7 13 15 0
110 6 14 15 0
113 6 13 15 0
112 6 13 15 0
107 3 12 9 0
110 3 10 8 0
106 2 4 7 0
110 3 6 8 0
110 4 11 9 0
109 6 23 7 0
111 6 27 8 0
108 6 29 8 0
108 6 34 8 0
110 6 41 8 0
105 6 58 8 0
109 6 63 9 0
106 6 69 10 0
105 5 71 10 0
108 3 72 8 1
102 3 62 8 1
107 3 53 8 1
107 4 70 10 1
106 4 98 11 1
110 4 114 11 2
108 4 107 13 2
108 4 118 15 2
109 5 117 14 2
105 5 114 15 3
109 5 108 15 3
107 5 113 21 3
106 5 128 22 4
108 5 125 21 4
103 4 107 21 4
107 6 92 24 5
106 6 108 26 5
107 6 114 25 5
111 5 117 26 6
107 5 123 25 6
109 5 134 27 6
109 5 132 21 7
105 6 121 17 7
111 9 116 24 7
108 10 136 35 8
107 8 142 34 8
108 9 131 32 9
104 9 114 32 9
107 9 103 30 10
104 11 115 33 10
103 12 111 34 10
106 13 110 34 11
104 14 106 33 11
104 11 109 33 12
102 7 96 19 12
101 5 68 14 13
105 7 102 29 13
102 8 120 30 14
102 9 119 30 14
102 9 112 29 15
102 10 106 28 15
104 9 106 28 16
100 7 106 28 16
102 7 108 28 17
105 6 92 27 17
102 8 92 27 17
105 8 74 18 18
102 8 49 17 18
106 8 50 17 19
108 8 54 17 20
103 4 61 16 20
106 4 97 19 20
105 4 125 22 21
105 5 120 18 22
108 5 121 17 22
104 4 120 18 23
105 4 117 22 23
105 5 118 21 24
100 4 124 21 24
105 4 129 20 25
103 4 129 20 25
104 4 112 21 26
105 5 88 20 26
102 7 101 26 27
105 7 99 26 27
102 7 105 26 28
104 7 106 25 28
108 6 109 25 29
105 8 103 25 30
105 8 89 25 30
104 8 90 26 30
104 9 102 27 31
107 9 101 27 32
103 6 92 26 32
105 5 102 28 33
107 5 97 28 33
104 4 93 27 34
108 4 92 29 34
106 5 94 29 35
112 8 95 29 35
112 10 93 28 36
107 10 72 23 36
113 12 63 26 36
112 12 76 26 37
110 11 58 23 37
114 10 56 21 38
110 9 51 21 38
110 8 52 16 39
109 8 40 15 39
105 8 44 15 40
112 8 55 18 40
109 8 55 18 41
111 7 57 18 41
112 6 61 22 42
108 8 101 39 42
109 9 119 39 43
106 8 129 41 43
109 9 183 47 44
111 8 210 48 44
105 8 209 48 45
107 8 210 48 45
106 7 213 50 46
103 6 214 50 46
107 6 208 48 47
105 5 201 35 47
110 5 191 35 48
110 5 193 35 48
107 5 154 28 49
114 8 110 25 49
113 8 111 25 50
113 8 110 24 51
114 8 105 18 51
111 9 143 34 52
114 9 148 34 52
111 8 136 32 52
109 8 127 30 53
113 7 125 31 53
110 7 127 32 54
111 5 128 32 54
109 5 116 32 55
110 7 114 33 55
113 6 116 33 56
107 4 78 22 56
111 4 80 24 57
112 4 78 24 57
112 5 90 27 58
115 6 116 25 58
112 6 110 20 58
120 6 165 30 59
121 8 205 32 59
114 7 215 30 60
120 7 215 30 60
119 7 225 31 60
118 7 229 30 61
121 6 227 31 61
117 6 222 29 62
119 4 201 28 62
117 6 207 32 62
110 7 183 32 63
117 6 140 39 63
115 7 125 40 64
113 7 130 40 64
114 7 115 39 64
111 10 103 44 65
113 11 99 44 65
108 11 96 41 65
110 11 96 41 66
112 11 83 40 66
105 11 72 36 66
107 11 60 26 67
106 8 41 23 67
105 7 63 23 67
107 11 62 25 68
102 10 96 22 68
106 9 116 29 68
105 9 118 29 69
102 8 117 31 69
108 8 129 33 69
106 7 129 32 70
107 8 152 34 70
108 7 151 29 70
106 7 147 26 71
111 6 148 37 71
108 6 149 37 71
111 6 136 34 72
113 6 144 43 72
110 5 148 42 72
113 4 137 43 73
111 3 137 43 73
109 5 112 42 73
113 5 135 45 74
109 6 111 45 74
111 6 137 39 74
111 6 131 38 75
106 6 132 37 75
110 8 141 29 75
107 8 135 30 75
106 9 142 28 76
108 10 153 31 76
106 9 152 31 76
111 10 137 28 77
108 9 174 37 77
109 9 156 37 77
111 9 164 45 78
108 9 176 46 78
113 9 163 45 78
111 9 190 53 79
112 8 183 54 79
114 10 180 52 79
111 10 190 56 80
113 11 187 57 80
114 10 173 51 80
112 11 171 51 80
118 11 162 46 81
115 12 157 45 81
115 10 156 44 81
116 9 128 30 81
111 11 129 32 82
115 10 120 32 82
113 10 103 25 82
112 9 104 21 83
115 9 82 24 83
110 9 82 24 83
112 7 76 24 83
111 6 67 21 84
109 6 63 20 84
113 6 55 20 84
110 3 57 20 84
112 4 68 20 84
113 4 75 20 85
110 4 80 21 85
114 4 84 18 85
112 6 86 17 85
112 6 93 17 85
115 6 96 17 86
111 8 113 23 86
116 8 128 26 86
114 9 127 26 86
115 9 123 24 86
117 9 115 25 87
113 9 116 27 87
116 9 112 27 87
115 8 111 30 87
114 9 103 31 87
117 9 99 31 88
113 9 103 32 88
116 10 65 29 88
117 10 98 31 88
113 10 107 33 88
118 10 106 33 88
115 11 117 34 89
114 12 121 35 89
116 12 149 31 89
114 11 155 33 89
116 11 159 33 89
114 13 171 32 89
109 13 169 31 89
113 11 163 34 90
109 11 163 34 90
112 10 164 36 90
113 11 161 35 90
110 10 161 33 90
118 11 138 34 90
114 11 126 33 91
114 11 124 33 91
115 7 83 25 91
112 8 95 25 91
115 8 88 21 91
111 8 89 20 91
110 9 88 17 92
113 8 107 22 92
109 8 113 24 92
106 7 151 35 92
104 7 167 36 92
112 9 174 39 92
116 10 185 39 93
114 10 186 40 93
116 10 186 40 93
117 10 200 41 93
115 10 204 43 93
119 10 198 42 94
117 9 210 42 94
120 10 191 32 94
124 9 175 34 94
113 7 188 33 94
117 6 180 32 94
115 9 175 31 95
112 11 186 35 95
114 15 178 35 95
109 15 168 36 95
112 15 172 40 95
111 15 151 39 96
107 15 160 39 96
107 16 158 38 96
105 16 170 46 96
108 16 180 48 97
108 14 211 52 97
108 15 239 51 97
112 12 243 50 97
110 13 265 50 97
108 13 260 46 98
109 16 281 54 98
109 15 277 54 98
115 15 278 53 98
113 15 260 44 99
113 15 245 40 99
116 15 222 36 99
112 12 177 35 99
112 12 172 36 99
111 13 138 30 100
111 14 145 34 100
116 10 92 27 100
110 12 131 36 100
112 12 128 36 101
112 12 134 35 101
109 14 146 43 101
114 13 147 43 101
112 18 214 53 102
117 18 225 52 102
120 17 258 57 102
115 15 277 54 102
119 15 295 53 102
117 14 296 54 103
116 17 305 54 103
121 18 313 58 103
116 18 309 56 103
118 18 310 56 104
117 18 291 49 104
111 19 267 49 104
113 18 249 46 104
109 18 249 51 105
112 19 238 60 105
113 19 222 53 105
111 18 215 53 105
113 18 203 52 105
111 17 201 51 106
118 21 224 56 106
122 18 203 55 106
122 19 210 55 106
124 22 208 57 107
123 25 254 61 107
119 25 253 56 107
125 25 303 62 107
119 25 332 65 107
122 25 332 63 107
122 25 360 73 108
111 22 347 70 108
113 23 353 76 108
108 25 352 77 108
111 21 364 78 108
113 20 326 74 109
110 19 335 75 109
111 21 318 72 109
109 22 305 72 109
109 24 330 78 110
111 22 307 68 110
109 21 306 71 110
113 21 298 66 110
113 24 375 89 110
110 26 374 86 110
112 26 427 98 111
110 32 453 102 111
109 32 448 103 111
110 44 532 131 111
105 45 533 127 112
116 48 576 139 112
111 52 595 141 112
115 54 599 142 112
116 53 564 131 112
115 52 561 130 113
119 52 527 124 113
117 49 493 119 113
118 48 485 119 113
119 38 405 91 114
118 35 382 91 114
118 33 334 75 114
118 28 288 66 114
112 32 311 68 114
119 31 287 63 115
115 35 364 97 115
118 40 389 102 115
118 41 395 105 115
117 45 410 107 115
123 43 376 100 116
118 45 378 100 116
116 45 379 104 116
116 49 403 106 116
114 44 367 98 117
116 45 369 99 117
114 43 316 77 117
116 38 297 74 117
123 46 322 81 117
118 42 311 79 118
122 42 314 76 118
121 40 318 75 118
121 41 321 77 118
124 42 325 84 118
120 40 306 77 118
124 38 290 74 119
126 37 289 72 119
119 37 276 70 119
121 28 237 61 119
121 35 251 59 119
125 35 249 60 119
127 32 250 66 120
123 39 270 70 120
131 32 239 61 120
130 37 333 82 120
129 37 334 80 120
132 36 335 79 120
129 38 348 83 120
128 38 358 88 121
126 44 414 85 121
119 45 432 83 121
122 47 433 79 121
120 42 414 69 121
122 42 408 70 121
124 40 385 54 121
121 40 389 57 121
126 44 388 58 122
124 48 382 53 122
125 50 377 55 122
129 34 288 53 122
125 36 300 58 122
130 37 286 58 122
128 38 290 58 122
123 38 288 57 122
131 45 331 85 122
123 44 324 82 123
124 42 333 92 123
124 43 375 100 123
118 40 367 94 123
118 65 441 109 123
115 65 430 109 123
114 68 457 122 123
117 72 465 129 123
113 72 471 130 123
115 82 511 136 123
115 81 512 135 123
116 85 542 143 124
118 85 547 147 124
115 85 544 145 124
123 68 496 134 124
122 71 511 135 124
119 70 495 129 124
122 64 481 122 124
117 64 478 121 124
117 44 349 86 124
118 43 361 88 124
112 39 305 68 124
116 29 217 43 124
113 26 209 42 125
113 26 161 28 125
116 24 155 34 125
111 23 141 34 125
114 24 166 47 125
113 25 162 47 125
109 25 161 47 125
112 26 144 46 125
111 22 140 46 125
115 18 141 47 125
115 18 128 46 124
113 17 123 42 124
119 12 104 39 124
116 12 94 36 124
118 9 17 5 124
119 5 60 13 124
116 5 64 14 124
121 5 84 22 124
118 7 108 28 124
118 7 107 27 124
120 12 127 30 124
115 12 127 30 124
119 12 133 31 124
118 12 134 33 123
117 12 134 34 123
122 12 111 30 123
118 12 111 31 123
121 11 106 28 123
120 9 93 23 122
118 10 93 24 122
124 8 67 23 122
120 11 67 23 122
122 12 56 22 121
123 12 51 16 121
120 15 57 21 121
124 16 65 25 120
120 16 70 28 120
113 16 97 34 120
116 18 95 38 120
110 19 104 40 119
114 21 114 42 119
114 19 115 43 118
110 19 126 46 118
113 17 127 47 118
107 16 124 46 118
109 16 120 44 117
109 15 117 42 117
112 13 92 36 117
117 14 98 32 116
116 12 87 25 116
112 9 64 16 116
114 9 64 14 115
112 8 54 11 115
117 8 55 8 115
116 8 55 12 114
115 9 57 13 114
122 15 58 21 113
120 16 56 26 113
121 13 45 26 112
120 12 51 27 112
119 12 52 27 112
124 11 68 27 111
118 11 63 25 111
117 11 63 25 110
118 11 63 19 110
115 13 74 24 109
117 9 79 22 109
112 7 79 17 109
108 7 90 19 108
111 7 82 18 108
108 7 99 24 107
109 6 88 23 107
107 8 109 31 106
111 11 124 36 106
114 11 124 36 106
109 10 127 37 105
109 10 128 37 105
109 10 128 37 104
111 10 120 36 104
115 10 121 36 104
111 9 107 32 103
113 10 117 33 103
113 10 100 28 103
106 6 80 24 102
110 6 87 31 102
108 6 78 26 102
113 6 72 27 101
115 5 80 27 101
113 6 79 27 101
115 6 78 28 100
115 6 83 28 100
115 6 69 26 100
119 6 66 25 99
117 4 64 22 99
120 4 57 14 99
120 4 54 14 98
114 5 61 16 98
119 5 54 16 98
114 4 54 17 97
115 4 62 16 97
117 4 55 16 96
111 3 58 19 96
116 3 58 20 96
115 3 57 22 95
114 3 55 20 95
117 4 54 18 94
114 4 49 17 94
117 5 69 23 94
116 5 69 23 93
115 5 67 22 93
119 5 72 20 92
116 6 73 20 92
117 6 78 21 92
118 6 96 21 91
118 6 96 22 91
122 3 104 22 90
119 2 107 22 90
119 2 91 17 90
121 2 92 17 89
117 2 90 16 89
121 3 86 15 88
119 3 86 17 88
117 3 85 16 87
121 4 70 15 87
117 4 74 14 86
118 6 64 15 86
117 8 73 19 86
115 8 75 19 85
119 8 74 20 85
114 8 75 19 84
117 8 79 19 84
118 8 79 19 83
116 8 76 19 83
118 7 75 17 82
113 8 67 17 82
113 7 65 17 82
115 3 52 12 81
111 3 48 11 81
114 3 47 11 80
113 4 46 11 80
110 4 35 11 80
113 4 19 5 79
108 4 19 5 79
112 5 46 12 78
112 4 50 12 78
110 5 66 15 78
114 5 85 16 77
111 5 96 15 77
112 5 97 16 76
113 5 97 16 75
110 4 103 23 75
114 5 106 25 74
112 6 104 26 74
111 5 84 22 73
114 5 78 23 73
111 4 78 23 72
115 5 70 24 72
114 6 60 26 71
113 6 59 25 71
117 6 59 25 70
114 6 42 20 70
119 6 27 17 70
119 6 21 12 69
116 6 36 12 68
120 6 37 13 68
116 6 70 23 67
117 6 94 23 67
119 3 93 22 66
116 3 98 23 66
119 3 99 23 65
116 3 99 23 65
114 3 99 23 64
117 3 96 21 64
114 2 83 20 63
116 2 85 20 63
116 1 75 14 62
113 2 44 12 62
118 3 39 12 61
113 2 41 13 61
117 3 44 14 60
118 3 41 14 60
116 5 53 18 59
120 5 65 20 59
116 5 66 20 58
116 5 71 21 58
119 5 70 21 57
115 5 77 22 57
118 5 79 22 56
116 9 70 19 56
113 10 65 18 55
117 11 66 18 55
111 9 60 14 54
113 9 51 12 54
113 8 48 11 53
111 9 42 7 53
114 9 58 9 52
110 9 53 14 52
109 9 53 14 51
110 10 84 21 51
105 9 89 22 50
108 9 93 22 50
105 7 101 24 49
106 8 101 24 49
108 7 112 27 49
103 7 116 27 48
107 7 106 27 48
105 6 101 22 47
105 5 103 23 47
108 5 87 17 46
104 5 83 16 46
107 4 79 16 46
107 4 66 14 45
105 3 65 12 45
109 3 48 6 45
107 3 25 4 44
107 4 14 5 44
108 4 13 5 44
104 4 9 5 43
110 5 18 10 43
107 6 30 12 43
108 6 30 12 42
110 6 45 13 42
105 6 66 14 42
109 7 74 15 41
107 7 74 15 41
107 7 75 14 40
111 7 76 14 40
108 11 76 16 40
107 11 73 13 39
107 10 63 9 39
103 10 62 8 39
106 10 59 8 38
103 10 40 8 38
108 12 21 13 38
108 13 24 14 37
100 14 32 15 37
109 14 30 16 36
108 18 30 20 36
112 20 28 20 36
112 26 34 28 35
107 38 52 42 35
123 45 59 49 35
123 46 59 50 34
113 47 58 49 34
120 44 58 48 34
123 41 55 45 33
113 35 52 39 33
107 19 66 29 32
106 17 79 27 32
114 19 83 30 32
115 18 76 27 31
105 15 71 23 31
108 17 71 24 31
108 16 71 23 31
107 17 69 21 30
107 32 62 33 30
123 40 55 37 30
121 44 51 42 30
111 43 45 41 29
110 47 47 47 29
115 52 49 51 29
125 61 55 58 29
124 65 58 62 28
120 66 58 63 28
126 67 58 63 28
125 59 50 55 28
108 48 42 44 28
112 32 33 32 28
112 35 35 34 27
120 37 36 35 27
121 35 35 33 27
111 27 27 28 27
116 21 21 21 27
116 19 19 19 27
112 18 18 18 27
114 17 17 18 26
111 18 17 18 26
114 17 16 18 26
114 16 15 17 26
108 14 13 15 26
111 16 12 14 25
104 14 11 12 25
109 13 10 11 25
110 13 13 13 25
105 14 13 12 25
111 18 13 12 25
108 18 13 12 24
107 19 13 12 24
110 18 11 9 24
109 15 10 8 24
111 15 10 8 24
110 15 10 8 23
109 16 10 8 23
115 17 8 7 23
111 15 8 7 23
112 12 8 7 23
112 12 8 8 22
107 10 10 9 22
114 9 10 9 22
110 9 10 11 22
112 7 10 11 22
114 6 10 11 22
112 9 13 12 21
111 11 14 12 21
109 11 14 13 21
107 11 14 13 21
110 11 14 12 21
109 13 14 13 20
110 13 13 13 20
110 13 14 12 20
108 12 14 13 20
108 14 18 17 20
102 12 16 15 20
109 7 11 11 20
110 7 11 11 19
109 7 11 11 19
113 7 11 11 19
110 6 11 11 19
113 8 11 10 19
115 8 11 10 19
112 8 13 11 19
117 5 10 8 19
116 6 11 9 19
115 6 11 8 19
118 6 13 10 19
112 7 14 11 19
115 8 15 13 19
115 8 15 13 18
110 6 14 13 18
113 7 15 16 18
107 7 13 17 18
110 7 13 18 18
111 7 14 19 18
111 10 15 20 18
118 15 14 19 18
116 16 14 19 18
115 15 15 17 18
119 15 15 15 18
115 15 16 16 17
120 15 16 15 17
119 16 16 15 17
120 16 17 14 17
124 16 14 12 17
116 12 13 9 17
114 11 14 11 16
114 10 14 11 16
115 14 12 12 16
117 12 12 12 16
114 12 10 9 16
117 12 10 10 15
118 12 10 10 15
111 12 11 9 15
115 12 13 10 15
113 12 13 11 15
117 15 16 13 14
120 14 16 11 14
115 11 16 12 14
121 13 16 13 14
120 13 16 13 14
117 13 17 14 13
121 13 17 15 13
120 13 22 20 13
125 14 18 17 13
126 13 18 17 13
123 12 18 17 12
126 12 16 16 12
122 11 16 16 12
122 12 17 16 12
125 14 17 17 12
121 14 17 16 12
124 13 16 14 11
121 8 14 9 11
123 11 16 10 11
126 12 16 10 11
119 10 14 10 11
123 10 16 10 11
123 11 16 11 11
119 14 17 12 11
123 14 19 13 10
119 14 19 14 10
121 14 16 13 10
122 15 17 13 10
115 11 16 12 10
119 11 16 12 10
117 13 17 12 10
114 12 16 12 9
117 12 15 10 9
111 10 14 10 9
115 11 11 9 9
114 11 12 8 9
112 13 11 7 9
116 11 11 7 9
110 11 12 10 8
112 12 13 16 8
113 10 16 21 8
111 10 28 31 8
116 10 28 32 8
113 10 29 34 8
116 11 32 35 7
118 12 32 35 7
116 10 32 35 7
120 10 32 35 7
118 10 31 33 7
117 9 30 33 7
119 12 29 27 6
116 12 17 20 6
121 13 23 20 6
120 13 23 20 6
118 12 19 25 6
125 15 21 28 5
121 15 24 28 5
124 15 24 28 5
124 17 26 29 5
124 17 28 30 5
127 19 28 30 5
123 23 29 30 4
123 23 24 28 4
124 22 24 27 4
120 26 24 19 4
121 25 20 15 3
119 26 21 15 3
118 28 22 14 3
121 28 19 11 3
118 28 16 10 3
123 26 16 9 3
123 17 14 9 3
118 15 13 8 2
123 14 13 7 2
118 13 15 7 2
118 13 15 7 2
119 12 10 8 2
115 9 10 7 2
120 9 10 7 2
114 8 10 7 2
113 9 10 8 2
116 9 9 8 2
114 11 10 10 2
118 11 10 14 2
116 10 16 18 2
117 10 15 18 2
121 10 16 18 2
118 12 17 19 2
121 12 17 19 2
121 10 16 18 2
121 9 16 19 2
124 10 17 19 2
118 7 16 18 2
118 7 16 15 2
120 7 10 9 2
116 7 10 7 2
122 7 10 7 3
119 5 11 6 3
118 5 14 6 3
121 4 15 6 3
118 4 15 6 3
125 6 14 6 3
124 7 15 7 4
122 7 17 7 4
126 7 17 6 4
121 7 15 6 4
123 7 15 6 4
123 7 20 6 5
120 7 20 7 5
126 7 20 6 5
121 8 25 7 5
120 6 31 8 6
122 6 38 7 6
119 6 35 9 6
123 6 37 9 7
120 5 45 9 7
119 5 45 15 7
123 5 45 15 8
119 6 53 15 8
121 6 83 25 8
120 7 80 27 9
120 7 91 29 9
124 7 102 29 9
120 8 109 36 10
121 8 130 40 10
122 7 137 41 10
119 7 136 38 11
124 6 140 39 11
120 6 142 39 12
121 6 131 36 12
123 6 138 37 12
116 6 136 37 13
122 7 134 39 13
120 9 126 32 14
120 9 89 22 14
123 9 47 14 15
120 9 42 19 15
120 8 84 24 16
119 9 136 31 16
115 9 139 31 17
119 8 136 29 17
117 8 130 27 18
117 7 138 30 18
118 4 143 30 19
112 4 140 30 19
117 4 139 33 20
115 5 138 33 21
114 5 143 33 21
115 4 126 29 22
113 5 132 30 22
123 5 132 30 23
120 4 138 34 24
118 4 117 27 24
121 4 93 26 25
118 4 103 29 26
121 4 103 29 26
120 5 138 38 27
117 7 166 42 28
123 7 163 40 28
119 7 152 38 29
113 6 147 38 30
113 6 147 37 30
109 6 146 36 31
114 7 148 36 32
113 7 153 32 32
107 8 159 30 33
111 7 146 32 34
111 6 121 29 34
110 6 122 29 35
109 6 125 29 36
108 6 126 29 36
111 6 123 29 37
105 6 123 30 37
107 6 119 30 38
108 6 79 28 38
107 6 55 28 39
111 7 65 20 39
108 7 75 20 40
111 7 76 21 40
112 9 69 20 41
108 7 60 19 41
115 7 63 17 42
114 7 83 21 42
110 7 85 20 43
114 8 94 18 43
110 8 97 18 44
111 9 124 25 44
110 9 154 32 45
106 9 145 31 45
112 8 156 37 46
107 9 176 42 46
109 10 176 42 47
110 10 172 41 47
108 11 174 40 48
112 9 169 41 49
108 9 165 41 49
111 8 151 38 50
112 7 105 29 50
108 8 91 31 51
109 8 94 29 51
107 8 67 20 52
106 10 75 28 52
110 10 72 28 53
106 9 78 29 53
110 10 68 30 54
110 11 74 30 54
109 10 71 31 55
111 11 110 41 55
109 14 126 44 56
112 14 127 43 56
114 14 144 44 57
117 16 147 43 57
120 16 145 43 58
117 16 141 42 58
118 16 151 41 59
120 16 165 45 59
113 16 164 45 60
119 14 165 35 60
119 10 151 32 61
117 10 151 34 61
119 10 149 39 62
109 8 145 39 62
113 9 145 40 63
113 9 145 40 63
110 8 142 42 64
117 7 124 36 64
114 8 134 36 65
112 10 104 34 65
114 10 103 32 66
111 10 129 32 66
115 10 118 19 66
112 9 129 16 67
112 9 129 16 67
114 9 136 21 68
109 9 139 26 68
110 8 142 27 69
109 9 134 27 69
107 8 131 29 70
111 9 126 28 70
107 9 111 33 71
109 10 120 38 71
109 10 114 37 72
107 11 140 50 72
109 16 148 63 73
104 18 150 60 73
103 17 151 59 73
105 17 163 59 74
97 17 202 63 74
108 22 211 65 75
106 21 212 61 75
108 24 210 61 76
108 37 223 69 76
101 45 229 79 77
115 47 220 68 77
115 48 218 67 78
111 46 214 66 78
118 44 205 67 78
120 41 148 56 79
107 28 163 54 79
104 26 176 57 79
96 44 168 63 80
117 49 168 60 80
119 48 156 44 81
115 45 151 37 81
115 39 150 34 81
113 38 154 34 82
113 38 140 41 82
110 40 139 54 83
109 40 105 50 83
114 40 93 48 83
116 30 101 44 84
109 21 105 41 84
107 16 107 40 84
102 15 100 51 85
114 17 122 55 85
112 17 119 55 86
119 12 119 49 86
124 16 121 38 86
127 20 135 44 87
128 19 133 44 87
125 20 124 43 87
126 19 102 40 88
131 19 91 38 88
128 20 106 33 88
128 20 94 30 89
127 20 95 30 89
122 22 101 31 89
121 18 107 31 90
113 12 90 17 90
119 11 91 15 90
120 11 93 16 91
121 16 95 26 91
122 16 104 24 91
118 17 127 25 92
119 17 135 26 92
121 18 180 30 92
115 18 188 29 93
121 17 202 37 93
119 17 207 37 93
117 16 213 36 94
120 16 220 38 94
111 12 225 40 94
117 12 238 40 95
117 12 217 39 95
113 12 214 39 96
114 12 176 39 96
109 10 170 40 96
112 18 160 37 97
112 22 173 45 97
109 21 185 45 97
111 24 178 59 98
108 26 188 62 98
110 25 173 74 98
112 25 176 74 99
111 25 192 76 99
121 26 199 75 99
121 27 213 74 100
116 22 234 76 100
119 18 231 72 100
114 18 238 74 101
119 17 255 62 101
120 17 253 57 101
122 19 251 44 102
127 17 257 43 102
122 17 245 41 102
121 16 241 42 102
123 15 222 46 103
121 18 216 49 103
125 17 213 48 103
123 17 202 45 104
120 16 182 43 104
121 23 167 39 104
109 21 158 39 105
116 22 158 41 105
115 22 157 38 105
112 19 158 38 106
113 21 165 35 106
109 22 162 38 106
112 23 167 37 107
113 25 178 40 107
112 29 192 41 107
118 24 189 41 107
115 21 219 45 108
116 19 222 49 108
118 20 268 63 108
116 19 273 63 109
121 23 303 68 109
119 24 304 67 109
116 24 299 68 110
119 25 328 83 110
118 24 328 84 110
121 25 342 90 110
119 27 337 90 111
118 28 334 89 111
120 25 353 90 111
118 32 364 89 112
117 31 383 92 112
118 31 391 92 112
115 31 391 92 113
118 44 450 100 113
114 44 442 98 113
118 45 464 103 114
121 50 484 108 114
113 49 487 110 114
119 52 503 121 114
115 49 493 122 115
118 50 477 118 115
121 53 469 120 115
117 55 471 121 116
120 43 415 118 116
120 42 418 117 116
116 42 382 107 116
122 38 345 101 117
117 44 415 124 117
117 43 392 114 117
118 42 444 124 118
118 45 475 136 118
120 47 471 133 118
118 51 511 145 118
120 52 492 141 119
122 51 506 146 119
114 53 516 149 119
118 52 514 149 119
117 52 509 138 120
112 50 478 133 120
114 50 454 129 120
106 46 418 114 120
119 39 417 115 121
121 35 372 99 121
118 34 372 92 121
121 40 381 98 121
120 38 366 93 122
121 38 372 90 122
123 37 282 79 122
123 33 279 75 122
127 31 262 73 123
124 32 232 74 123
118 28 215 66 123
117 45 238 79 123
112 50 234 92 123
116 46 200 80 124
115 46 231 82 124
116 45 222 87 124
120 38 220 76 124
117 42 218 76 124
118 40 247 84 125
118 44 251 85 125
111 43 275 94 125
115 41 248 84 125
112 53 275 79 125
113 68 286 82 125
116 70 275 83 126
106 70 303 87 126
112 69 298 92 126
109 62 297 92 126
112 63 280 87 126
116 52 276 85 126
114 49 238 70 126
117 51 238 70 126
117 45 182 57 126
115 25 128 45 126
120 19 131 41 126
116 19 91 33 126
118 19 99 15 126
119 17 95 9 126
114 17 98 9 126
119 16 101 12 126
116 20 106 14 126
120 20 112 15 126
123 22 120 18 126
116 15 123 29 126
117 18 119 31 126
116 18 129 48 126
112 17 127 51 126
116 16 128 52 126
113 16 136 54 126
118 15 136 55 125
118 14 135 55 125
114 13 131 55 125
119 11 125 56 125
118 11 118 50 125
119 6 104 48 125
121 6 73 33 124
118 7 62 26 124
122 7 36 16 124
119 6 33 16 124
116 7 35 17 123
118 7 35 17 123
113 8 52 26 123
118 16 73 26 122
117 21 75 26 122
113 24 78 27 122
117 24 75 28 121
113 22 74 28 121
116 21 74 30 120
116 20 74 29 120
112 19 69 28 120
116 18 71 25 119
112 17 67 20 119
111 17 40 19 118
113 16 37 19 118
113 12 37 17 118
118 8 38 17 117
116 8 38 20 117
118 10 46 18 116
121 11 52 18 116
117 9 72 21 115
122 8 81 21 115
121 8 91 22 114
121 9 103 26 114
125 10 110 27 113
120 10 108 27 113
121 9 111 26 112
121 9 111 25 112
116 9 108 24 111
120 10 106 24 111
118 10 90 20 110
118 10 75 19 110
121 10 72 19 109
116 9 59 14 108
121 6 36 11 108
119 6 36 11 107
117 6 40 9 107
124 6 41 22 106
119 4 49 23 105
122 4 54 23 105
121 4 54 24 104
118 4 55 24 104
122 4 56 26 103
118 5 48 26 102
118 4 49 26 102
120 4 46 25 101
116 6 50 25 100
116 6 51 15 100
112 6 48 13 99
114 6 45 14 99
119 6 45 13 98
119 5 92 25 98
121 6 97 25 97
119 7 123 34 96
118 10 138 38 96
121 9 145 39 95
117 10 147 39 94
122 10 158 42 94
123 10 157 43 93
120 10 158 44 93
123 10 160 44 92
116 9 131 33 92
119 9 123 37 91
120 8 113 33 91
116 5 95 29 90
121 5 79 28 90
119 4 75 27 89
117 4 52 23 89
119 4 55 21 89
113 5 49 16 88
114 5 49 12 88
112 5 51 10 87
110 5 49 7 87
116 4 46 9 86
112 4 48 9 86
115 4 50 9 85
116 3 50 8 85
113 4 52 9 84
119 5 45 13 84
116 6 45 15 83
119 6 46 19 83
121 6 44 20 82
117 6 49 23 82
122 6 45 22 81
120 6 40 21 81
117 7 45 22 80
122 7 76 23 80
116 7 71 23 79
119 6 88 22 79
118 6 93 21 78
115 5 90 14 78
120 4 91 14 77
116 4 94 19 76
115 5 100 23 76
117 5 101 23 75
116 5 105 24 75
119 6 80 23 74
118 7 80 24 73
116 8 68 24 73
119 6 62 23 72
114 6 65 25 72
119 6 71 25 71
117 6 62 22 70
117 6 56 20 70
120 6 59 20 69
113 4 51 18 69
114 5 51 18 68
113 4 55 18 67
114 5 71 20 67
116 5 71 19 66
114 5 64 13 65
113 6 59 14 65
114 6 72 18 64
107 5 72 16 63
111 4 71 18 63
109 4 72 18 62
108 3 71 17 62
112 6 78 18 61
108 12 72 14 60
110 11 67 17 60
109 11 95 29 59
105 11 100 30 59
109 10 94 28 58
106 9 99 30 57
105 13 106 29 57
105 16 105 29 56
102 18 105 29 56
105 19 100 28 55
99 15 92 26 55
103 15 96 26 54
105 14 73 16 54
103 13 81 17 53
106 9 87 18 53
105 4 80 13 52
106 5 70 13 52
109 5 70 12 51
106 5 70 13 51
107 5 70 11 50
106 5 67 7 50
104 5 62 8 49
107 5 69 8 49
104 4 48 6 48
106 4 52 7 48
107 5 56 8 47
104 6 56 11 47
109 6 61 11 46
106 4 58 11 46
109 6 58 11 45
112 7 59 11 45
107 7 64 14 44
112 8 61 15 44
111 10 86 16 43
108 10 104 23 43
111 10 104 22 42
107 10 107 22 42
112 11 107 22 41
112 11 106 21 41
106 10 105 20 40
111 9 102 20 40
108 9 94 15 40
109 8 96 17 39
110 7 82 17 39
107 7 44 10 38
112 6 28 11 38
109 7 25 11 38
106 5 17 11 37
110 7 13 10 37
110 8 8 11 37
110 7 5 8 36
108 9 5 5 36
106 9 9 5 36
112 11 13 8 35
109 11 24 9 35
111 11 24 9 34
112 11 25 9 34
110 12 25 11 34
111 11 28 14 33
105 9 39 13 33
107 8 41 12 33
108 9 39 12 32
103 9 40 11 32
104 8 42 12 31
102 7 41 12 31
109 10 45 17 31
115 11 43 15 30
110 11 42 17 30
115 12 41 17 29
115 16 32 19 29
111 16 22 20 29
118 14 20 19 28
116 15 20 20 28
123 18 23 21 27
123 20 25 22 27
112 20 24 21 27
115 20 23 20 26
113 19 23 20 26
111 19 24 18 25
114 13 20 13 25
113 14 20 14 25
118 16 14 14 24
116 17 13 15 24
109 16 13 13 24
112 14 14 12 23
110 14 11 9 23
110 12 10 8 23
110 12 10 8 22
109 9 6 5 22
112 9 5 5 22
107 10 5 7 21
102 6 4 8 21
103 8 4 8 21
101 8 10 11 21
106 8 10 11 20
103 11 19 25 20
105 13 19 25 20
105 21 28 35 20
96 39 32 40 19
175 110 108 114 19
227 182 169 179 19
216 179 166 175 19
214 187 175 184 19
252 246 249 242 19
314 268 273 264 19
321 282 288 277 19
319 298 301 293 19
338 303 303 297 19
342 299 300 296 19
297 266 264 260 18
211 164 176 159 18
206 126 144 117 18
207 133 152 125 18
207 109 118 102 18
153 100 105 97 18
162 95 92 92 18
172 62 61 67 18
135 43 41 47 17
117 35 34 40 17
116 32 32 37 17
121 32 32 35 17
112 34 34 36 17
117 32 33 35 17
118 30 31 32 17
109 29 31 32 17
111 29 31 32 17
107 29 27 29 16
115 25 25 27 16
118 20 16 21 16
115 20 16 21 16
117 19 15 21 16
111 16 9 11 16
112 15 10 11 16
117 16 10 11 16
116 18 12 13 15
119 18 13 14 15
121 22 15 17 15
127 28 21 22 15
127 30 24 25 15
121 29 25 26 14
131 29 25 26 14
129 24 21 20 14
122 21 18 16 14
124 26 21 20 14
123 31 21 21 13
131 34 26 30 13
131 35 26 31 13
121 32 24 29 13
127 30 23 28 13
127 31 21 27 12
120 30 20 26 12
124 23 18 23 12
123 23 19 24 12
127 21 17 22 12
127 18 15 16 12
114 15 11 10 11
120 10 11 9 11
116 11 12 9 11
117 11 11 9 11
118 10 10 10 11
117 11 10 13 10
120 12 11 14 10
115 11 14 16 10
117 11 14 16 10
122 13 23 27 10
120 11 24 28 9
122 13 24 28 9
121 13 24 28 9
120 13 26 29 9
125 13 27 29 9
117 11 26 28 9
122 10 27 28 9
123 10 24 25 9
119 11 23 25 9
121 9 17 16 9
117 9 14 13 8
120 8 14 13 8
121 9 14 13 8
113 9 12 11 8
117 9 11 13 8
115 9 10 13 8
115 11 9 12 8
118 12 16 22 8
114 12 19 23 8
120 15 21 25 8
121 14 22 29 8
116 14 22 29 8
120 13 22 29 7
118 12 21 28 7
121 12 21 27 7
122 12 21 28 7
116 11 21 28 7
119 7 14 15 7
116 9 14 17 7
112 8 11 17 7
116 9 9 9 7
116 15 13 12 7
122 15 13 12 7
120 14 13 11 7
123 15 13 11 7
127 15 13 11 7
123 15 12 11 7
128 15 11 11 7
128 15 10 11 7
126 15 11 11 7
131 15 11 11 7
124 10 5 6 7
125 10 5 6 7
126 10 6 6 7
119 6 6 4 7
124 6 6 4 7
122 6 8 4 7
121 6 8 7 7
123 6 8 7 7
120 6 10 7 7
121 5 26 8 7
120 5 36 8 7
119 4 40 11 7
123 4 65 15 7
119 4 75 15 7
121 3 75 15 7
121 3 75 15 8
117 3 75 15 8
122 3 76 16 8
119 4 75 15 8
120 4 73 14 8
122 4 64 14 9
118 4 65 12 9
123 4 53 9 9
120 6 45 7 9
119 6 45 4 10
122 7 45 7 10
118 7 53 11 10
121 7 55 12 10
120 6 61 12 11
117 6 71 14 11
121 6 93 15 11
116 4 93 16 12
118 4 145 38 12
119 4 183 41 12
118 7 195 41 12
118 8 196 42 13
114 8 197 41 13
117 9 195 40 14
119 9 190 39 14
116 9 180 37 14
120 8 152 33 15
119 8 155 35 15
117 10 140 24 16
119 11 92 20 16
113 11 56 18 17
120 10 67 22 17
120 9 76 23 18
113 8 76 22 18
119 5 71 24 19
116 5 65 22 19
116 5 96 25 20
118 5 125 25 21
113 4 130 27 21
118 5 129 28 22
116 6 127 27 22
113 5 115 20 23
116 5 93 15 23
113 5 103 26 24
115 8 130 35 25
114 10 141 35 25
110 12 129 34 26
116 12 112 36 26
113 12 99 33 27
112 11 100 32 27
112 9 100 30 28
110 8 96 29 29
111 9 101 29 29
105 10 102 27 30
105 10 77 17 30
107 10 58 17 31
105 10 67 19 32
107 9 59 18 32
104 8 69 25 33
104 6 69 29 33
107 6 63 29 34
103 5 83 31 34
108 5 90 30 35
107 6 91 30 35
106 5 91 30 36
110 6 92 30 36
103 9 94 30 37
109 10 128 32 38
109 10 130 29 38
104 9 124 27 39
108 9 127 29 39
105 8 121 27 40
107 8 124 29 40
108 7 122 34 41
105 7 115 33 41
108 7 107 31 42
107 6 116 31 42
102 5 99 27 43
108 5 91 29 43
107 6 91 28 44
108 7 86 26 44
108 7 91 26 44
104 7 74 26 45
108 7 66 19 45
102 7 94 23 46
104 7 94 23 46
105 7 104 29 47
104 11 103 29 47
103 11 115 30 48
99 11 154 34 48
104 13 158 34 49
105 13 154 38 49
99 12 175 44 49
103 11 187 47 50
103 10 177 44 50
106 9 178 44 51
108 7 169 42 51
102 7 164 42 52
110 9 157 37 52
111 8 105 31 53
105 7 87 30 53
110 7 87 29 54
109 7 92 25 54
112 7 99 19 54
113 6 109 22 55
106 6 109 22 55
111 6 122 30 56
110 6 132 33 56
108 5 131 33 57
110 5 138 35 57
107 3 127 35 58
111 3 130 36 58
110 3 135 35 58
107 3 117 43 59
113 3 127 41 59
110 3 128 42 60
114 4 131 56 60
115 5 128 56 60
113 7 148 71 61
116 7 155 73 61
112 7 157 73 62
111 7 178 76 62
115 8 171 76 63
112 8 175 73 63
114 8 163 73 63
112 9 165 75 64
110 8 154 63 64
113 7 151 61 65
108 6 132 45 65
110 6 125 35 66
111 8 126 43 66
108 8 101 42 66
111 8 100 43 67
106 7 95 41 67
109 8 97 44 68
109 8 101 40 68
104 7 113 36 69
107 6 110 37 69
104 6 111 41 70
106 6 87 39 70
109 6 88 36 70
106 6 84 32 71
108 8 117 35 71
106 9 137 37 72
104 9 136 35 72
108 9 138 34 73
106 9 126 34 73
111 9 127 34 73
111 10 128 39 74
106 10 153 44 74
111 10 164 47 75
107 11 174 49 75
108 8 161 46 76
109 4 141 45 76
110 12 142 47 76
110 14 139 46 77
106 14 151 53 77
107 14 147 52 78
111 14 161 56 78
111 17 152 57 79
115 18 138 55 79
115 21 126 52 80
124 27 115 51 80
124 34 121 56 80
113 40 161 68 81
128 39 162 74 81
128 37 178 73 82
118 31 191 71 82
123 26 173 53 83
121 26 176 55 83
121 25 183 56 83
121 28 198 59 84
112 31 196 59 84
125 31 214 58 85
126 22 181 44 85
117 16 189 30 86
122 11 182 33 86
122 9 171 33 86
122 6 166 29 87
119 6 157 31 87
121 5 176 36 88
126 7 187 35 88
122 9 191 36 88
123 9 173 32 89
124 9 182 31 89
117 9 189 36 90
125 10 193 34 90
123 12 208 38 90
116 20 219 49 91
119 21 215 48 91
115 22 208 47 92
122 24 181 50 92
120 25 182 49 92
118 26 177 50 93
125 26 163 51 93
121 28 148 50 94
118 27 158 62 94
119 26 152 61 94
123 17 137 51 95
125 11 143 56 95
117 11 135 56 95
116 13 142 60 96
118 13 143 63 96
114 13 164 67 97
116 16 194 66 97
115 15 211 67 97
114 13 211 59 98
114 16 205 57 98
111 16 266 60 98
123 24 267 55 99
123 25 297 61 99
119 25 307 58 99
122 26 314 56 100
118 29 338 66 100
123 27 321 70 101
122 27 340 67 101
121 29 339 70 101
127 29 339 69 102
122 28 307 67 102
112 24 309 68 102
113 22 292 62 103
111 21 285 62 103
114 21 278 64 103
113 16 253 58 104
108 16 255 51 104
110 16 211 51 105
107 12 196 47 105
110 11 198 49 105
109 13 190 53 105
109 13 189 53 106
109 14 184 54 106
104 15 177 54 106
112 15 174 55 107
113 15 134 43 107
113 13 133 45 107
118 14 152 46 107
115 14 155 45 108
119 18 193 47 108
121 18 165 35 108
120 18 174 37 109
128 17 169 37 109
127 18 189 52 109
116 19 195 49 110
119 19 204 57 110
112 19 209 58 110
122 18 198 61 110
120 16 208 61 111
119 14 191 60 111
124 18 214 66 111
120 20 211 65 111
120 20 216 64 112
121 17 199 53 112
123 15 195 51 112
130 14 191 44 112
128 15 190 56 112
123 17 186 50 113
127 18 172 52 113
119 16 173 53 113
126 14 157 52 114
124 15 170 53 114
124 17 165 63 114
127 18 193 66 114
123 18 192 66 114
119 20 199 69 115
119 20 195 58 115
117 19 200 62 115
116 21 195 62 115
112 22 194 63 116
106 22 189 54 116
108 19 156 49 116
106 25 158 47 116
111 26 145 49 116
109 30 168 49 117
114 28 157 47 117
117 29 175 47 117
112 27 161 36 117
122 30 207 64 118
121 27 218 64 118
118 24 219 58 118
120 24 220 66 118
112 28 215 67 118
116 28 231 83 119
117 25 216 83 119
114 25 239 86 119
117 25 223 89 119
115 26 218 90 119
106 27 181 71 120
108 25 167 73 120
106 24 167 74 120
110 24 187 69 120
109 23 189 70 120
102 23 155 49 121
108 43 226 62 121
102 44 206 56 121
105 44 230 61 121
104 45 239 63 121
108 48 298 85 122
111 62 315 91 122
109 59 325 88 122
109 60 319 88 122
109 59 332 86 123
103 63 346 85 123
102 66 403 95 123
99 75 413 97 123
95 73 418 95 123
95 76 410 96 123
90 74 379 78 124
99 72 422 86 124
97 71 431 93 124
101 76 459 102 124
104 72 435 99 125
105 59 410 98 125
113 64 363 91 125
113 61 349 88 125
115 60 324 84 126
124 59 334 81 126
119 59 330 85 126
120 34 182 62 126
122 32 201 60 126
118 29 161 55 126
124 30 158 57 126
122 30 169 60 126
121 35 167 62 126
124 34 167 62 126
122 34 173 67 126
124 32 150 66 126
123 30 118 58 126
121 29 111 48 126
122 29 102 48 126
116 24 97 49 126
122 24 97 44 126
122 23 90 43 126
123 17 65 40 126
127 17 64 41 126
123 16 51 28 126
125 19 52 30 126
127 17 44 24 126
123 17 41 23 126
130 17 49 21 126
128 16 51 20 126
124 14 49 10 126
127 15 44 10 126
120 14 58 12 126
122 14 67 10 126
121 13 66 11 126
116 7 67 10 126
120 6 69 10 126
116 7 76 15 126
118 7 78 16 125
119 7 78 15 125
115 7 102 24 125
119 9 101 24 125
116 11 94 26 125
116 10 94 27 124
118 10 94 27 124
114 11 104 28 124
117 12 113 30 123
115 13 107 32 123
114 13 109 33 123
117 12 114 34 122
111 13 96 31 122
115 15 100 33 122
115 18 113 35 121
111 18 109 33 121
116 16 114 34 121
111 16 111 33 120
113 17 101 32 120
114 15 103 27 120
110 15 94 26 120
114 15 88 24 119
111 15 83 20 119
113 13 89 20 119
116 7 73 12 118
113 7 79 12 118
118 8 74 13 118
117 8 71 19 117
116 9 71 20 117
121 8 70 20 116
117 8 71 20 116
119 9 72 20 115
119 9 63 20 115
114 7 48 21 114
121 8 58 20 114
118 8 51 21 114
117 5 51 16 113
119 5 53 15 113
114 4 50 16 112
117 6 51 16 112
115 9 56 16 111
113 9 55 16 111
118 8 61 13 110
113 9 61 13 110
111 8 51 12 109
110 7 55 12 109
107 6 53 11 108
113 6 52 14 108
111 8 53 22 107
114 8 51 22 107
114 5 42 24 106
113 6 43 25 106
117 6 37 24 105
115 6 26 24 105
120 6 27 25 104
123 7 22 25 104
120 7 21 26 103
123 7 21 22 103
119 5 32 16 102
117 6 32 18 102
120 6 37 14 101
117 5 44 13 100
120 5 44 14 100
120 5 44 12 99
117 5 45 14 99
120 5 46 13 98
115 5 47 13 98
120 5 46 13 97
121 5 47 14 97
118 3 46 12 96
122 4 52 18 96
118 5 47 18 95
118 5 49 17 95
121 5 50 19 94
117 7 54 19 94
122 7 53 20 93
120 7 53 20 93
116 8 53 21 92
120 8 46 20 92
115 8 49 20 91
117 8 53 15 91
116 8 53 18 90
113 8 58 16 90
117 8 59 15 89
113 6 56 15 89
113 6 56 15 88
116 6 61 15 88
113 6 65 15 87
117 6 67 16 87
114 6 70 17 86
114 4 59 17 86
116 4 58 17 85
110 4 56 18 85
114 4 55 18 84
113 5 55 18 83
113 5 55 19 83
115 5 49 19 82
110 5 45 18 82
112 6 45 18 81
112 8 40 17 81
110 8 44 15 80
117 8 44 14 80
113 8 38 10 79
116 8 37 11 78
117 7 48 13 78
111 8 48 13 77
114 8 48 13 77
113 8 41 13 76
113 8 41 19 75
116 6 41 19 75
112 6 39 19 74
115 4 44 18 74
114 3 46 18 73
108 5 48 17 72
113 4 42 18 72
111 5 51 21 71
113 5 59 21 71
113 5 57 21 70
111 5 51 15 70
115 5 51 13 69
111 5 51 12 68
111 5 56 15 68
114 6 74 18 67
110 5 78 19 67
114 5 77 19 66
112 3 68 15 65
111 3 55 15 65
114 3 55 15 64
109 2 56 15 64
111 3 56 15 63
111 3 52 13 63
106 5 57 12 62
112 5 39 10 62
109 5 23 7 61
108 7 34 7 61
108 7 48 9 60
104 7 48 9 60
109 7 50 9 59
107 7 56 9 59
106 7 53 11 58
110 9 53 11 57
106 9 87 22 57
109 13 102 22 56
107 16 109 27 56
106 16 101 26 55
111 15 89 24 55
108 14 90 24 54
109 11 94 25 54
109 8 97 26 54
107 8 97 24 53
110 8 98 25 53
106 6 79 19 52
109 6 55 18 52
111 5 19 9 52
106 5 18 10 51
110 4 19 11 51
109 6 20 11 50
105 6 19 11 50
109 6 18 9 50
105 9 34 8 49
110 9 54 8 49
109 12 65 8 49
103 13 64 11 48
109 14 56 13 48
109 14 63 12 47
107 14 66 13 47
106 12 66 11 47
108 10 65 9 46
110 7 66 9 46
107 7 67 6 46
107 6 53 6 45
110 8 30 8 45
106 9 20 8 45
107 9 17 7 45
104 9 11 7 44
106 10 10 6 44
108 9 17 7 44
101 9 19 12 43
107 11 26 14 43
107 11 47 16 43
105 12 52 16 42
109 12 54 15 42
107 10 52 15 42
111 12 52 17 41
112 14 51 19 41
107 13 50 20 41
111 13 44 19 40
110 12 47 17 40
108 11 47 14 39
110 9 34 9 39
103 11 24 11 39
105 11 12 11 38
104 11 8 16 38
100 11 9 15 38
103 11 15 13 37
102 11 16 13 37
102 11 33 15 36
102 12 53 14 36
103 13 57 14 36
105 12 56 13 35
103 13 56 13 35
105 12 55 15 34
108 15 54 15 34
106 15 53 16 34
109 14 46 14 33
106 15 44 16 33
108 15 44 14 33
109 12 27 13 32
102 9 19 11 32
106 8 18 11 32
105 9 19 9 31
99 10 10 10 31
100 8 8 10 30
94 26 29 26 30
105 28 32 28 30
105 28 33 30 30
102 30 33 33 29
115 41 50 54 29
113 42 50 54 29
107 42 48 55 28
107 45 54 58 28
104 47 56 59 28
112 48 55 59 27
113 48 53 61 27
105 47 53 62 27
109 46 52 60 26
108 46 52 60 26
90 38 37 40 26
86 32 33 35 25
92 20 28 18 25
98 22 25 21 25
101 22 25 22 25
102 22 24 22 24
102 21 25 22 24
97 22 24 23 24
100 21 23 22 23
95 21 23 24 23
100 13 12 18 23
102 11 16 23 22
96 11 16 24 22
101 14 18 27 22
98 22 21 31 21
93 20 20 30 21
95 21 21 30 21
97 23 21 30 21
101 22 21 29 20
100 22 18 22 20
107 19 15 16 20
111 20 14 16 20
109 20 13 16 19
111 20 12 14 19
112 16 10 7 19
111 17 10 7 19
119 17 8 8 18
114 15 8 8 18
113 15 9 8 18
115 14 9 8 18
108 14 11 12 18
109 13 13 12 18
108 13 13 13 17
104 13 14 14 17
109 11 13 14 17
105 11 16 15 17
104 6 24 28 17
104 6 24 28 17
106 8 25 28 17
110 9 25 28 17
106 8 23 26 17
106 9 23 26 17
109 9 23 26 17
106 10 22 26 17
112 11 23 25 17
110 11 21 24 17
108 11 10 11 17
112 11 10 11 17
107 9 8 11 17
112 10 8 11 17
112 9 8 11 17
113 8 6 10 17
116 8 6 10 17
113 7 9 11 17
112 6 10 13 17
113 7 9 12 17
114 12 10 11 16
116 12 10 11 16
113 12 13 12 16
116 13 13 13 16
117 13 13 13 16
112 14 14 12 16
115 14 14 11 16
113 15 12 12 16
117 16 12 16 16
121 15 12 15 16
114 11 12 16 15
117 11 15 16 15
117 13 14 17 15
113 12 13 18 15
117 11 14 18 15
112 11 14 18 15
112 12 16 17 15
113 11 17 17 14
108 13 16 15 14
107 16 18 16 14
105 17 18 15 14
104 16 13 14 13
105 15 11 10 13
99 13 12 10 13
104 14 16 13 13
103 14 16 13 13
104 14 14 13 12
106 15 15 13 12
100 14 15 12 12
110 14 12 10 12
111 14 12 11 12
110 15 13 11 12
113 13 12 11 11
110 13 12 11 11
110 13 11 8 11
111 13 11 8 11
108 13 11 7 11
115 12 11 8 11
113 12 9 8 11
108 5 5 5 11
110 6 18 7 11
106 6 36 8 11
109 6 37 10 11
109 9 47 11 11
110 9 76 11 11
116 11 93 11 11
113 14 95 12 11
113 13 96 11 11
114 13 96 12 11
112 14 97 12 11
116 14 94 11 11
113 14 81 10 11
117 14 74 9 11
118 11 77 10 11
112 9 67 10 11
115 9 44 10 11
113 7 37 9 11
114 8 59 11 11
117 6 60 10 12
113 5 70 10 12
118 7 80 10 12
117 6 98 10 12
112 7 109 18 12
117 7 110 20 12
117 7 109 19 12
117 7 118 20 13
116 6 116 21 13
110 5 119 20 13
119 5 114 20 13
116 5 120 25 14
115 3 139 24 14
118 4 136 24 14
115 4 138 28 15
119 4 139 27 15
115 4 140 28 15
115 4 135 31 16
118 5 138 32 16
116 4 113 30 17
113 4 96 32 17
113 6 96 29 18
110 6 83 29 18
113 5 104 30 19
110 4 92 21 19
108 5 80 19 20
109 5 120 21 20
106 11 139 22 21
111 11 136 19 21
108 11 137 21 22
108 11 137 21 22
111 10 140 22 23
107 9 137 22 23
109 10 121 21 24
107 11 110 20 25
107 13 107 19 25
110 14 90 22 26
103 10 70 23 26
107 10 91 26 27
108 9 91 25 28
104 9 92 24 28
107 8 87 21 29
103 8 83 19 29
107 10 79 19 30
107 11 79 21 30
105 10 78 21 31
108 10 84 21 31
106 11 93 19 32
109 13 61 13 33
111 13 63 14 33
110 14 78 11 34
111 15 78 15 34
111 15 80 14 35
