2176 2071 2052 2055 0
2156 2059 2058 2048 0
1884 2056 2039 2048 0
2071 2048 2046 2039 0
2206 2043 1975 1998 0
1929 2063 2037 2061 0
1997 2066 2042 2054 0
2208 2044 2024 2034 0
2009 2047 2049 2052 0
1935 2083 2083 2081 0
2227 2101 2061 2071 0
2101 2074 2051 2060 0
1911 2065 2051 2064 0
2127 2062 2045 2045 0
2154 2055 2039 2049 0
1905 2044 2018 2011 0
2051 2053 2071 2083 0
2192 2053 2027 2048 0
1986 2073 2049 2062 0
1990 2070 2047 2065 0
2185 2056 2039 2037 0
2022 2055 2037 2055 0
1939 2060 2040 2053 0
2160 2057 2047 2039 0
2097 2061 2051 2061 0
1910 2046 2028 2038 0
2098 2051 2049 2064 0
2169 2063 2045 2057 0
1948 2070 2045 2062 0
2018 2042 2018 2038 0
2192 2062 2034 2041 0
1965 2049 2044 2048 0
1972 2057 2049 2054 0
2198 2065 2058 2054 0
2043 2060 2054 2064 0
1936 2058 2054 2053 0
2148 2054 2050 2048 0
2101 2044 2040 2043 0
1963 2103 2081 2077 0
2102 2064 2051 2053 0
2181 2066 2056 2057 0
1961 2071 2052 2059 0
2020 2060 2058 2067 0
2197 2065 2052 2057 0
2010 2063 2051 2057 0
1955 2038 2031 2033 0
2182 2051 2061 2074 0
2065 2066 2048 2054 0
1915 2048 2035 2042 0
2138 2094 2028 2038 0
2138 2064 2064 2054 0
1914 2044 2036 2022 0
2084 2054 2033 2032 0
2188 2085 2075 2081 0
1975 2085 2070 2093 0
2013 2048 2020 2032 0
2183 2051 2045 2058 0
2013 2046 2041 2052 0
1949 2050 2041 2052 0
2193 2088 2067 2075 0
2105 2077 2069 2070 0
1922 2069 2045 2047 0
2114 2056 2040 2054 0
2128 2047 2044 2052 0
1940 2067 2045 2058 0
2059 2059 2036 2045 0
2173 2054 2049 2045 0
1970 2052 2036 2037 0
1976 2043 2025 2015 0
2186 2068 2059 2068 0
2041 2060 2059 2071 0
1944 2058 2051 2072 0
2152 2048 2037 2047 0
2088 2068 2036 2064 0
1928 2050 2051 2047 0
2084 2055 2037 2041 1
2164 2071 2052 2051 1
1937 2058 2027 2014 1
2015 2048 2042 2047 1
2172 2047 1993 2002 1
1975 2030 2064 2086 1
1942 2030 1994 2022 1
2123 2005 1996 2009 1
1999 1999 1940 1963 1
1856 1980 1977 1990 1
2058 2001 1960 1953 1
2016 1962 1947 1950 1
1846 1979 1968 1965 1
2000 1982 1970 1984 1
2108 1999 1985 1998 1
1944 2064 2040 2047 1
2031 2074 2080 2043 1
2213 2089 2083 2088 1
2072 2120 2095 2107 1
2026 2120 2119 2122 1
2245 2137 2133 2145 1
2169 2143 2146 2163 1
2059 2158 2151 2152 1
2239 2189 2166 2187 1
2238 2199 2159 2162 1
2031 2151 2124 2112 1
2128 2120 2121 2127 1
2209 2083 2088 2096 1
1999 2107 2073 2068 1
1996 2054 2031 2042 1
2178 2072 2040 2041 1
2008 2038 2019 2027 1
1935 2036 2035 2033 1
2168 2059 2042 2048 1
2096 2023 2036 2045 1
1944 2086 2050 2064 1
2097 2043 2034 2055 1
2153 2095 2054 2056 1
1952 2068 2047 2049 1
2055 2069 2047 2054 1
2179 2086 2050 2079 1
1965 2048 2044 2061 1
1998 2063 2038 2066 1
2163 2053 2021 2031 1
2052 2063 2052 2047 1
1938 2034 2032 2034 1
2113 2047 2032 2041 1
2067 2020 2012 2014 1
1942 2058 2049 2050 1
2084 2048 2030 2035 1
2153 2064 2015 2041 1
1960 2061 2060 2055 1
2037 2066 2052 2060 1
2158 2034 2032 2028 1
2029 2084 2074 2087 1
1964 2043 2037 2054 1
2181 2076 2057 2067 1
2044 2045 2033 2030 1
1931 2047 2055 2061 1
2084 2015 1988 2002 1
2086 2015 2003 2024 1
1905 1991 2008 2005 1
2047 2062 2021 2023 1
2174 2078 2060 2074 1
1985 2100 2051 2068 1
2005 2049 2039 2039 2
2162 2029 2041 2056 2
2005 2045 2043 2054 2
1964 2064 2044 2064 2
2180 2082 2071 2070 2
2122 2122 2087 2089 2
2005 2136 2125 2129 2
2200 2146 2144 2149 2
2247 2156 2157 2163 2
1993 2104 2111 2106 2
2096 2089 2081 2085 2
2157 2038 2043 2041 2
1923 2019 1999 1994 2
1950 2023 2009 2013 2
2130 2022 2018 2022 2
2029 2067 2039 2037 2
1969 2065 2035 2033 2
2174 2061 2049 2071 2
2087 2059 2036 2050 2
1900 2029 2002 2015 2
2043 2019 1994 1986 2
2068 1967 1978 1973 2
1878 2000 1965 1966 2
2007 2015 2008 2006 2
2171 2056 2045 2073 2
2003 2062 2042 2062 2
2004 2056 2067 2072 2
2206 2094 2052 2041 2
2081 2084 2081 2087 2
1980 2102 2084 2108 2
2134 2056 2037 2046 2
2070 2014 1983 1990 2
1866 1988 1977 1983 1
1999 1979 1945 1921 1
2101 2007 2015 2001 1
1888 1987 1991 2021 1
1957 1998 1947 1992 1
2120 2013 1979 2001 1
1962 2015 1974 1953 1
1933 2021 2048 2038 0
2151 2036 2012 2017 0
2063 2054 2055 2013 0
1967 2084 2097 2143 0
2156 2078 2072 2093 0
2154 2081 2047 2106 0
1957 2082 2075 2061 0
2078 2079 2055 2041 0
2198 2089 2055 2109 0
2006 2086 2069 2093 0
2018 2055 2071 2059 0
2262 2152 2132 2142 0
2108 2159 2127 2128 0
2039 2129 2140 2131 0
2270 2168 2164 2141 0
2202 2192 2234 2266 0
2015 2159 2118 2129 0
2194 2138 2132 2135 0
2204 2122 2101 2098 0
1944 2074 2069 2060 0
2004 2020 1999 2007 0
2085 1962 1953 1952 0
1814 1906 1905 1901 0
1843 1918 1886 1877 0
2026 1894 1849 1823 0
1904 1930 1939 1979 0
1790 1900 1894 1912 0
2007 1927 1895 1921 0
1978 1945 1941 1967 0
1875 2007 1972 1971 0
2025 1982 1956 1981 0
2135 2024 2002 1996 0
1893 1997 2040 2033 0
1976 1999 1985 1997 0
2184 2071 2037 2082 0
1969 2041 2010 2019 0
1998 2090 2086 2107 0
2256 2122 2115 2127 0
2115 2125 2092 2109 0
1968 2103 2088 2096 0
2192 2085 2071 2087 0
2152 2077 2079 2087 0
1942 2076 2072 2071 0
2111 2064 2071 2066 0
2212 2101 2067 2073 0
1971 2100 2096 2100 0
2058 2099 2066 2080 0
2228 2091 2068 2064 0
2034 2086 2062 2062 0
1990 2111 2103 2121 0
2221 2088 2061 2055 0
2103 2086 2054 2077 0
1959 2108 2160 2158 0
2167 2087 2036 2041 0
2184 2095 2100 2125 0
1931 2068 2046 2049 0
2066 2066 2065 2068 0
2189 2062 2045 2046 0
1983 2075 2053 2065 0
2030 2089 2052 2011 0
2243 2110 2107 2098 0
2057 2095 2029 2041 0
1986 2093 2116 2143 0
2212 2096 2048 2103 0
2116 2092 2111 2088 0
1936 2068 1987 1987 0
2160 2090 2003 2039 0
2162 2083 2094 2132 0
1940 2063 1998 2016 0
2061 2070 2100 2097 0
2193 2068 2037 2025 0
1972 2056 2060 2077 0
1992 2064 2046 2078 0
2198 2062 2047 2061 0
2033 2067 2068 2077 0
1933 2052 2051 2047 0
2132 2031 2034 2018 0
2107 2060 2062 2039 0
1894 2029 2044 2046 0
2097 2058 2040 2036 0
2147 2053 2049 2048 0
1905 2060 2031 2019 0
2003 2016 1989 1966 0
2192 2047 2050 2088 0
1970 2056 2015 2035 0
1957 2057 2044 2061 0
2198 2069 2042 2070 0
2048 2059 2047 2048 0
1906 2042 2037 2042 0
2142 2034 2026 2025 0
2106 2023 2023 2030 0
1874 2038 2002 2010 0
2070 2041 2024 2031 0
2183 2070 2039 2045 0
1918 2038 2036 2031 0
2010 2050 2050 2053 0
2231 2072 2053 2045 0
1990 2065 2067 2074 0
1951 2060 2023 2043 0
2181 2055 2040 2050 0
2067 2057 2054 2064 0
1908 2061 2022 2039 0
2151 2063 2035 2040 0
2128 2048 2002 2022 0
1900 2047 2030 2054 0
2063 2051 2051 2062 0
2193 2063 2041 2082 0
1950 2059 2042 2052 0
1997 2060 2039 2062 0
2202 2065 2052 2057 0
2022 2072 2069 2070 0
1943 2056 2048 2063 0
2170 2055 2050 2047 0
2081 2070 2055 2059 0
1915 2059 2056 2052 0
2114 2058 2063 2062 0
2151 2060 2036 2030 0
1938 2086 2086 2087 0
2063 2049 2019 2019 0
2206 2076 2106 2095 0
1990 2079 2037 2037 0
1973 2062 2018 2044 0
2209 2076 2046 2058 0
2041 2063 2056 2035 0
1926 2060 2053 2055 0
2165 2064 2037 2066 0
2112 2060 2046 2068 0
1912 2055 2055 2049 0
2093 2053 2039 2032 0
2171 2057 2037 2060 0
1919 2048 2012 1998 0
2065 2077 2080 2082 0
2222 2089 2058 2059 0
1993 2091 2062 2082 0
1931 2024 1992 2004 0
2129 1999 1959 1955 0
1962 1980 1970 1984 0
1817 1974 1956 1957 0
2094 1998 2000 1995 0
2072 2002 2020 2045 0
1849 2005 2004 2024 0
2072 2031 2019 2030 0
2169 2036 2000 2014 0
1911 2043 2046 2064 0
2017 2064 2025 2028 0
2229 2087 2104 2104 0
2011 2084 2044 2056 0
1954 2077 2083 2068 0
2213 2072 2044 2070 0
2096 2070 2029 2045 0
1930 2091 2072 2094 0
2155 2067 2071 2080 0
2154 2052 2060 2053 0
1919 2060 2072 2062 0
2053 2045 2030 2045 0
2179 2039 2017 2002 0
1942 2053 2052 2080 0
1989 2067 2075 2059 0
2223 2064 2074 2080 0
2032 2064 2037 2044 0
1925 2055 2048 2052 0
2196 2072 2088 2091 0
2105 2068 2035 2044 0
1903 2060 2044 2030 0
2137 2070 2048 2051 0
2180 2067 2076 2070 0
1930 2065 2053 2064 0
2054 2070 2060 2077 0
2211 2071 2053 2060 0
1964 2064 2082 2090 0
1982 2068 2065 2031 0
2214 2063 2075 2104 0
2058 2077 2047 2063 0
1928 2063 2029 2050 0
2171 2080 2058 2076 0
2108 2044 2046 2038 0
1916 2064 2054 2062 0
2089 2072 2037 2030 0
2177 2068 2050 2021 0
1935 2064 2050 2066 0
2023 2057 2050 2070 0
2223 2074 2055 2076 0
1989 2064 2027 2013 0
1934 2035 1985 1979 0
2198 2064 2032 2056 0
2068 2063 2044 2057 0
1912 2052 2029 2049 0
2159 2059 2058 2066 0
2144 2070 2039 2035 0
1922 2085 2089 2082 0
2087 2053 2016 2004 0
2199 2068 2022 2023 0
1938 2058 2009 2040 0
1987 2048 2027 2044 0
2184 2040 2003 2014 0
2016 2066 2061 2053 0
1948 2064 2047 2058 0
2195 2050 2041 2048 0
2088 2052 2053 2045 0
1897 2046 2037 2033 0
2134 2052 2040 2037 0
2156 2053 2028 2030 0
1911 2061 2074 2070 0
2071 2075 2112 2130 0
2224 2067 2038 2068 0
1945 2056 2050 2070 0
1976 2052 2039 2043 0
2213 2063 2042 2051 0
2017 2057 2039 2049 0
1918 2054 2045 2049 0
2170 2053 2046 2046 0
2103 2056 2052 2063 0
1902 2060 2050 2052 0
2116 2052 2047 2051 0
2158 2045 2041 2045 0
1908 2059 2077 2074 0
2039 2051 2068 2051 0
2224 2066 2050 2063 0
1988 2071 2036 2055 0
1961 2063 2036 2061 0
2210 2091 2050 2065 0
2047 2064 2049 2045 0
1912 2056 2033 2019 0
2165 2063 2060 2071 0
2120 2056 2031 2044 0
1904 2058 2036 2040 0
2090 2047 2046 2044 0
2179 2056 2050 2041 0
1931 2062 2045 2061 0
2028 2054 2048 2062 0
2212 2072 2050 2086 0
1994 2066 2042 2044 0
1927 2043 2023 2016 0
2197 2064 2096 2097 0
2069 2063 2049 2054 0
1914 2063 2037 2055 0
2134 2060 2043 2040 0
2175 2080 2040 2057 0
1887 2034 2010 1983 0
2095 2085 2067 2061 0
2208 2068 2054 2079 0
1936 2053 2040 2050 0
1987 2056 2052 2052 0
2203 2051 2022 2046 0
2013 2067 2054 2091 0
1926 2057 2034 2035 0
2194 2068 2066 2057 0
2096 2052 2025 2006 0
1892 2055 2037 2035 0
2125 2049 2025 2042 0
2169 2076 2090 2120 0
1896 2053 2036 2062 0
2054 2054 2052 2079 0
2214 2074 2032 2037 0
1957 2061 2046 2025 0
1961 2052 2069 2078 0
2227 2066 2072 2062 0
2033 2074 2081 2079 0
1917 2060 2029 2015 0
2220 2093 2048 2057 0
2117 2070 2057 2092 0
1901 2063 2013 2036 0
2113 2043 2036 2034 0
2174 2055 2076 2080 0
1919 2059 2035 2060 0
2029 2050 2016 2048 0
2208 2046 2019 2023 0
1950 2052 2031 2034 0
1939 2054 2028 2043 0
2197 2050 2037 2041 0
2040 2047 2041 2040 0
1892 2042 2041 2041 0
2167 2060 2048 2057 0
2124 2053 2050 2050 0
1902 2066 2061 2077 0
2090 2053 2049 2066 0
2192 2060 2047 2054 0
1930 2057 2041 2050 0
2015 2062 2046 2049 0
2183 2027 2019 2028 0
2015 2071 2055 2050 0
1931 2048 2026 2017 0
2218 2078 2049 2062 0
2097 2077 2056 2076 0
1907 2060 2060 2077 0
2160 2075 2049 2055 0
2153 2064 2045 2054 0
1887 2048 2030 2036 0
2066 2058 2038 2041 0
2208 2064 2054 2063 0
1944 2055 2039 2048 0
1992 2059 2047 2052 0
2188 2044 2026 2035 0
2028 2082 2063 2060 0
1947 2068 2061 2050 0
2196 2066 2087 2071 0
2110 2080 2060 2067 0
1889 2041 2016 2006 0
2128 2058 2081 2107 0
2166 2064 2037 2060 0
1907 2060 2058 2102 0
2045 2062 2035 2051 0
2204 2058 2045 2032 0
1957 2060 2056 2055 0
1973 2058 2048 2055 0
2210 2056 2050 2042 0
2028 2058 2050 2043 0
1917 2063 2065 2055 0
2185 2062 2060 2085 0
2114 2066 2020 2031 0
1891 2048 2017 2007 0
2124 2069 2048 2039 0
2173 2057 2044 2055 0
1925 2068 2043 2030 0
2035 2057 2041 2063 0
2211 2056 2045 2051 0
1966 2050 2041 2055 0
1976 2068 2046 2057 0
2202 2052 2059 2056 0
2065 2075 2046 2038 0
1916 2064 2067 2064 0
2167 2067 2039 2041 0
2143 2068 2052 2071 0
1894 2079 2039 2047 0
2078 2046 2031 2024 0
2207 2070 2083 2081 0
1918 2050 2073 2093 0
2007 2051 2051 2060 0
2203 2053 2035 2041 0
1990 2055 2058 2053 0
1938 2058 2059 2063 0
2207 2063 2038 2039 0
2081 2059 2038 2050 0
1893 2047 2030 2046 0
2135 2050 2046 2048 0
2150 2060 2044 2025 0
1894 2044 2011 1973 0
2066 2064 2064 2057 0
2191 2059 2037 2060 0
1952 2062 2049 2074 0
1983 2051 2005 2024 0
2214 2055 2045 2045 0
2014 2060 2029 2057 0
1925 2064 2034 2036 0
2170 2046 2022 2031 0
2120 2080 2058 2067 0
1886 2053 2037 2051 0
2120 2056 2034 2038 0
2166 2055 2052 2072 0
1923 2063 2058 2056 0
2044 2061 2040 2038 0
2210 2064 2058 2065 0
1952 2056 2043 2043 0
1956 2054 2026 2033 0
2210 2063 2038 2036 0
2039 2066 2061 2074 0
1908 2054 2029 2051 0
2168 2062 2045 2049 0
2116 2058 2055 2062 0
1904 2062 2043 2046 0
2096 2058 2035 2043 0
2178 2064 2044 2044 0
1920 2060 2051 2048 0
2026 2066 2058 2063 0
2226 2075 2065 2074 0
1960 2034 2021 2011 0
1959 2063 2059 2092 0
2209 2064 2046 2073 0
2061 2066 2034 2069 0
1901 2043 2045 2049 0
2161 2059 2042 2040 0
2141 2072 2043 2047 0
1929 2079 2050 2057 0
2102 2069 2066 2057 0
2218 2087 2076 2074 0
1956 2084 2065 2060 0
2009 2065 2051 2050 0
2229 2062 2055 2054 0
2012 2074 2059 2068 0
1937 2064 2046 2048 0
2205 2063 2047 2061 0
2057 2026 2024 2038 0
1877 2037 2017 2031 0
2125 2046 2042 2049 0
2153 2057 2027 2019 0
1884 2039 2040 2021 0
2037 2039 2023 2040 0
2224 2064 2030 2051 0
1939 2061 2062 2059 0
1979 2054 2038 2039 0
2226 2068 2043 2056 0
2004 2051 2031 2051 0
1913 2055 2043 2046 0
2183 2057 2045 2038 0
2104 2066 2056 2050 0
1887 2054 2045 2044 0
2115 2050 2048 2021 0
2172 2051 2041 2058 0
1897 2052 2055 2051 0
2029 2050 2038 2037 0
2211 2051 2053 2044 0
1967 2056 2039 2044 0
1956 2048 2056 2074 0
2208 2056 2039 2060 0
2042 2058 2032 2052 0
1900 2054 2057 2074 0
2172 2064 2043 2045 0
2122 2062 2048 2063 0
1893 2061 2050 2039 0
2098 2060 2033 2059 0
2189 2071 2035 2051 0
1917 2063 2046 2067 0
2024 2061 2056 2058 0
2219 2062 2052 2056 0
1996 2071 2055 2050 0
1953 2063 2060 2062 0
2215 2068 2053 2063 0
2057 2055 2041 2042 0
1883 2036 2041 2036 0
2150 2045 2031 2029 0
2131 2056 2054 2060 0
1889 2049 2042 2048 0
2082 2057 2037 2038 0
2197 2064 2059 2059 0
1921 2059 2054 2063 0
2002 2058 2042 2045 0
2217 2064 2048 2063 0
1990 2053 2047 2045 0
1922 2038 2064 2065 0
2205 2062 2033 2036 0
2074 2068 2043 2051 0
1903 2066 2041 2081 0
2141 2056 2038 2053 0
2163 2068 2061 2067 0
1911 2055 2057 2034 0
2041 2039 2028 2027 0
2229 2080 2090 2079 0
1950 2066 2047 2043 0
1989 2066 2051 2053 0
2219 2063 2045 2051 0
2031 2072 2070 2076 0
1919 2058 2066 2064 0
2182 2049 2048 2041 0
2094 2055 2023 2046 0
1888 2053 2038 2044 0
2114 2070 2046 2039 0
2179 2075 2059 2058 0
1910 2064 2074 2082 0
2037 2057 1999 2027 0
2208 2061 2042 2045 0
1965 2064 2033 2040 0
1958 2051 2051 2068 0
2210 2059 2056 2051 0
2066 2073 2052 2054 0
1912 2049 2042 2050 0
2167 2066 2050 2064 0
2130 2067 2050 2058 0
1893 2051 2046 2048 0
2098 2060 2046 2033 0
2191 2072 2073 2086 0
1928 2058 2032 2036 0
2038 2078 2075 2087 0
2202 2052 1997 2002 0
1984 2060 2043 2072 0
1932 2041 1991 2006 0
2202 2060 2045 2052 0
2066 2065 2070 2063 0
1900 2049 2051 2057 0
2140 2040 2037 2052 0
2133 2047 2031 2048 0
1903 2060 2045 2041 0
2066 2048 2023 2028 0
2204 2061 2057 2074 0
1940 2061 2036 2037 0
1989 2054 2045 2057 0
2220 2061 2048 2068 0
2013 2060 2058 2045 0
1922 2051 2057 2064 0
2210 2077 2044 2054 0
2082 2058 2007 2021 0
1902 2062 2029 2028 0
2142 2062 2031 2017 0
2168 2068 2066 2095 0
1908 2057 2016 2002 0
2053 2050 2045 2082 0
2221 2070 2048 2057 0
1942 2064 2032 2057 0
1978 2055 2052 2058 0
2214 2057 2038 2033 0
2024 2052 2054 2066 0
1906 2045 2023 2025 0
2189 2062 2047 2050 0
2107 2057 2041 2040 0
1897 2060 2039 2051 0
2118 2066 2046 2047 0
2185 2067 2058 2068 0
1901 2068 2037 2028 0
2029 2055 2037 2041 0
2202 2062 2055 2023 0
1986 2072 2066 2085 0
1972 2059 2037 2044 0
2214 2066 2044 2067 0
2040 2056 2039 2047 0
1911 2063 2053 2057 0
2171 2079 2050 2074 0
2132 2056 2030 2052 0
1893 2055 2047 2044 0
2101 2060 2048 2051 0
2198 2066 2051 2062 0
1926 2067 2052 2057 0
2022 2058 2049 2048 0
2217 2061 2044 2046 0
1989 2067 2053 2056 0
1911 2035 2028 2036 0
2208 2052 2031 2038 0
2068 2063 2069 2078 0
1897 2059 2036 2041 0
2158 2065 2065 2057 0
2152 2073 2066 2089 0
1896 2057 2023 2028 0
2079 2063 2042 2063 0
2205 2066 2051 2063 0
1940 2060 2048 2079 0
2003 2067 2066 2084 0
2227 2080 2045 2059 0
2014 2070 2069 2078 0
1919 2058 2041 2041 0
2194 2056 2042 2058 0
2086 2052 2031 2036 0
1873 2042 2033 2041 0
2141 2066 2049 2066 0
2164 2066 2065 2071 0
1914 2067 2034 2054 0
2044 2056 2041 2042 0
2193 2067 2042 2050 0
1944 2051 2037 2027 0
1983 2073 2069 2058 0
2208 2057 2048 2041 0
2034 2068 2106 2114 0
1914 2053 2032 2047 0
2180 2064 2031 2051 0
2117 2065 2042 2033 0
1889 2072 2039 2031 0
2115 2059 2061 2072 0
2185 2071 2045 2080 0
1920 2049 2048 2095 0
2025 2056 2035 2039 0
2217 2062 2039 2030 0
1966 2057 2036 2044 0
1951 2055 2044 2048 0
2200 2055 2045 2047 0
2060 2069 2055 2061 0
1901 2048 2039 2038 0
2163 2054 2041 2044 0
2129 2060 2044 2052 0
1889 2056 2052 2052 0
2095 2058 2040 2040 0
2187 2064 2058 2073 0
1926 2064 2038 2049 0
2000 2052 2063 2053 0
2227 2074 2025 2039 0
1993 2060 2066 2066 0
1946 2065 2063 2092 0
2192 2060 2035 2048 0
2091 2074 2034 2048 0
1894 2061 2045 2051 0
2138 2052 2037 2040 0
2155 2066 2064 2042 0
1891 2061 2028 2042 0
2057 2047 2058 2055 0
2201 2054 2047 2037 0
1940 2072 2031 2038 0
1983 2065 2043 2041 0
2224 2078 2044 2058 0
2017 2055 2042 2056 0
1918 2048 2034 2028 0
2187 2047 2037 2036 0
2094 2062 2060 2064 0
1901 2059 2039 2034 0
2138 2057 2084 2095 0
2164 2060 2031 2038 0
1911 2055 2044 2050 0
2051 2064 2047 2045 0
2208 2058 2035 2047 0
1966 2062 2060 2055 0
1953 2048 2044 2047 0
2211 2051 2048 2060 0
2047 2054 2060 2068 0
1898 2033 2042 2057 0
2179 2053 2048 2066 0
2116 2069 2040 2043 0
1890 2069 2024 2017 0
2087 2051 2019 2020 0
2189 2076 2071 2099 0
1925 2057 2044 2061 0
2013 2048 2036 2048 0
2209 2057 2058 2087 0
1977 2045 2037 2048 0
1950 2059 2071 2094 0
2231 2086 2046 2045 0
2052 2055 2045 2051 0
1900 2056 2063 2069 0
2183 2071 2061 2061 0
2132 2060 2033 2042 0
1895 2056 2049 2055 0
2086 2042 2047 2045 0
2188 2048 2038 2044 0
1941 2072 2073 2082 0
1969 2012 2019 2020 0
2219 2064 2049 2043 0
2008 2062 2052 2052 0
1941 2072 2049 2049 0
2195 2045 2041 2048 0
2072 2066 2070 2058 0
1903 2072 2028 2049 0
2146 2080 2038 2049 0
2160 2074 2038 2058 0
1907 2055 2026 2044 0
2059 2052 2064 2062 0
2207 2065 2075 2087 0
1936 2039 2051 2053 0
1987 2048 2053 2063 0
2221 2055 2068 2068 0
2018 2072 2042 2056 0
1920 2057 2031 2036 0
2182 2059 2038 2036 0
2098 2067 2056 2053 0
1890 2056 2032 2055 0
2121 2073 2037 2055 0
2171 2080 2030 2054 0
1904 2052 2032 2031 0
2036 2054 2060 2063 0
2228 2067 2056 2064 0
1955 2052 2032 2027 0
1948 2035 2012 2013 0
2221 2070 2059 2056 0
2032 2054 2043 2052 0
1890 2040 2024 2038 0
2179 2059 2051 2055 0
2116 2067 2061 2067 0
1884 2051 2030 2030 0
2121 2067 2043 2059 0
2176 2058 2057 2048 0
1922 2061 2056 2066 0
2021 2052 2024 2032 0
2213 2054 2031 2045 0
1981 2063 2055 2060 0
1947 2056 2052 2039 0
2199 2052 2049 2055 0
2057 2057 2019 2047 0
1899 2059 2055 2068 0
2151 2055 2037 2033 0
2148 2070 2031 2038 0
1895 2064 2035 2033 0
2085 2063 2046 2066 0
2191 2063 2056 2067 0
1920 2049 2042 2044 0
1988 2049 2047 2053 0
2221 2060 2044 2039 0
2010 2076 2046 2054 0
1932 2056 2038 2037 0
2208 2067 2031 2031 0
2078 2054 2052 2048 0
1901 2052 2029 2040 0
2127 2057 2027 2033 0
2182 2084 2050 2077 0
1891 2041 2025 2026 0
2039 2037 2044 2080 0
2207 2065 2040 2052 0
1950 2062 2051 2066 0
1982 2050 2024 2027 0
2217 2067 2031 2018 0
2022 2065 2049 2059 0
1923 2059 2044 2057 0
2187 2060 2033 2030 0
2100 2058 2033 2021 0
1896 2058 2021 2021 0
2115 2057 2052 2076 0
2178 2065 2052 2057 0
1904 2042 2026 2038 0
2034 2052 2081 2073 0
2200 2052 2035 2038 0
1959 2050 2072 2078 0
1967 2062 2052 2080 0
2215 2061 2053 2072 0
2052 2073 2063 2065 0
1895 2040 2022 2012 0
2184 2061 2049 2070 0
2115 2064 2038 2054 0
1897 2063 2047 2054 0
2084 2042 2033 2031 0
2184 2066 2044 2048 0
1925 2068 2055 2058 0
2020 2060 2031 2031 0
2220 2062 2039 2051 0
1981 2056 2037 2050 0
1942 2052 2027 2034 0
2206 2061 2045 2061 0
2066 2056 2032 2036 0
1884 2038 2049 2037 0
2186 2084 2039 2046 0
2136 2058 2054 2066 0
1897 2060 2045 2056 0
2109 2087 2062 2057 0
2195 2056 2049 2048 0
1930 2065 2037 2063 0
2004 2054 2033 2039 0
2208 2046 2045 2059 0
1996 2056 2031 2034 0
1935 2054 2049 2046 0
2201 2048 2046 2060 0
2086 2056 2025 2029 0
1871 2031 2025 2058 0
2144 2061 2068 2068 0
2170 2080 2050 2066 0
1894 2064 2040 2029 0
2060 2054 2037 2028 0
2206 2062 2038 2046 0
1950 2057 2038 2049 0
1967 2045 2055 2066 0
2210 2056 2029 2034 0
2007 2072 2048 2052 0
1920 2057 2042 2037 0
2200 2085 2043 2044 0
2119 2061 2052 2050 0
1895 2044 2061 2063 0
2119 2067 2044 2031 0
2184 2070 2033 2029 0
1915 2069 2057 2071 0
2028 2062 2022 2049 0
2209 2050 2037 2045 0
1971 2062 2051 2074 0
1950 2050 2046 2034 0
2224 2038 2045 2070 0
2072 2067 2063 2075 0
1892 2055 2017 2030 0
2164 2076 2054 2066 0
2109 2048 2042 2052 0
1888 2057 2022 2023 0
2090 2069 2079 2085 0
2189 2077 2042 2042 0
1931 2078 2031 2034 0
2018 2050 2047 2052 0
2218 2060 2036 2036 0
2001 2062 2076 2104 0
1941 2048 2026 2031 0
2207 2071 2030 2056 0
2063 2042 2044 2053 0
1898 2054 2064 2084 0
2153 2067 2063 2054 0
2162 2082 2048 2045 0
1892 2052 2040 2047 0
2077 2056 2043 2040 0
2196 2061 2058 2052 0
1940 2054 2038 2045 0
1992 2057 2058 2052 0
2212 2059 2049 2048 0
2006 2057 2028 2007 0
1929 2068 2088 2090 0
2195 2065 2047 2063 0
2080 2057 2043 2071 0
1914 2079 2045 2061 0
2129 2054 2039 2035 0
2175 2076 2079 2082 0
1919 2061 2039 2034 0
2050 2058 2064 2078 0
2218 2070 2062 2076 0
1960 2065 2062 2080 0
1978 2065 2038 2049 0
2205 2064 2019 2030 0
2056 2086 2081 2083 0
1908 2043 2011 2014 0
2185 2064 2036 2072 0
2105 2057 2052 2080 0
1902 2053 2035 2038 0
2099 2046 2030 2036 0
2177 2062 2043 2045 0
1891 2041 2017 2024 0
2047 2066 2047 2062 0
2219 2070 2051 2054 0
1991 2077 2078 2067 0
1962 2056 2023 2031 0
2210 2064 2068 2081 0
2039 2058 2049 2039 0
1888 2031 2022 2009 0
2155 2038 2026 2031 0
2133 2075 2045 2063 0
1901 2064 2029 2037 0
2104 2069 2047 2090 0
2193 2067 2056 2064 0
1921 2059 2042 2059 0
2015 2052 2044 2044 0
2199 2044 2019 2024 0
1992 2061 2092 2116 0
1928 2048 2048 2041 0
2185 2049 2034 2042 0
2088 2062 2049 2047 0
1885 2046 2007 1991 0
2145 2051 2020 2060 0
2146 2059 2056 2082 0
1902 2054 2027 2043 0
2066 2048 2040 2044 0
2210 2063 2047 2042 0
1925 2044 2041 2028 0
2018 2074 2055 2056 0
2222 2061 2057 2063 0
2037 2077 2058 2060 0
1918 2049 2049 2049 0
2181 2039 2038 2062 0
2095 2060 2038 2066 0
1908 2073 2049 2070 0
2126 2060 2038 2045 0
2171 2067 2046 2061 0
1892 2045 2026 2041 0
2041 2043 2037 2017 0
2240 2077 2084 2091 0
1964 2068 2046 2055 0
1973 2055 2047 2056 0
2203 2013 2023 2039 0
2021 2033 2025 2030 0
1897 2071 2013 2008 0
2200 2094 2026 2043 0
2130 2081 2052 2054 0
1893 2060 2096 2096 0
2102 2060 2041 2060 0
2171 2063 2048 2049 0
1908 2041 2032 2036 0
2040 2052 2045 2045 0
2221 2064 2047 2063 0
1976 2054 2041 2046 0
1942 2044 2039 2043 0
2208 2064 2054 2057 0
2051 2070 2049 2062 0
1894 2034 2041 2049 0
2175 2066 2065 2079 0
2142 2068 2048 2055 0
1900 2064 2025 2027 0
2061 2041 2031 2032 0
2197 2065 2115 2123 0
1949 2069 2060 2063 0
2029 2076 2041 2064 0
2238 2057 2009 2043 0
1994 2063 2044 2055 0
1918 2057 2055 2053 0
2199 2053 2047 2047 0
2074 2053 2045 2055 0
1898 2060 2047 2057 0
2139 2062 2055 2057 0
2154 2053 2048 2050 0
1884 2043 2021 2029 0
2057 2052 2022 2043 0
2232 2092 2060 2076 0
1933 2046 2042 2049 0
1983 2063 2032 2036 0
2207 2055 2036 2040 0
2010 2060 2047 2056 0
1924 2063 2050 2056 0
2192 2065 2037 2045 0
2099 2067 2045 2043 0
1906 2063 2030 2053 0
2118 2052 2047 2056 0
2173 2072 2050 2058 0
1905 2056 2035 2048 0
2044 2059 2075 2087 0
2214 2074 2046 2061 0
1965 2063 2052 2056 0
1966 2052 2032 2030 0
2205 2054 2061 2059 0
2037 2058 2050 2056 0
1928 2056 2059 2077 0
2180 2061 2047 2054 0
2122 2063 2047 2057 0
1898 2063 2046 2051 0
2111 2067 2023 2026 0
2179 2059 2048 2051 0
1919 2046 2025 2028 0
2035 2064 2090 2098 0
2211 2060 2047 2064 0
1978 2068 2041 2052 0
1954 2064 2043 2056 0
2219 2063 2045 2070 0
2064 2056 2070 2095 0
1915 2061 2036 2060 0
2149 2064 2030 2042 0
2139 2065 2064 2065 0
1895 2046 2050 2064 0
2082 2058 2042 2046 0
2179 2059 2057 2056 0
1932 2064 2028 2039 0
1999 2027 2062 2080 0
2213 2053 2059 2075 0
1980 2066 2015 2013 0
1933 2064 2041 2038 0
2193 2085 2042 2037 0
2080 2058 2046 2051 0
1903 2050 2028 2036 0
2139 2066 2046 2053 0
2169 2073 2042 2049 0
1921 2067 2071 2080 0
2076 2070 2049 2056 0
2216 2068 2061 2072 0
1954 2060 2046 2056 0
1980 2042 2036 2045 0
2193 2036 2035 2043 0
2017 2053 2046 2045 0
1922 2061 2049 2050 0
2188 2069 2032 2037 0
2088 2044 2042 2049 0
1876 2041 2023 2033 0
2101 2045 2027 2020 0
2150 2052 2051 2060 0
1907 2049 2016 2008 0
2042 2066 2067 2079 0
2206 2063 2047 2049 0
1973 2060 2041 2049 0
1985 2073 2050 2056 0
2228 2074 2055 2068 0
2058 2074 2051 2048 0
1914 2054 2022 2039 0
2155 2050 2080 2091 0
2101 2041 2018 2032 0
1888 2047 2027 2032 0
2093 2045 2055 2058 0
2167 2045 2014 2022 0
1919 2057 2063 2074 0
2026 2063 2054 2062 0
2210 2054 2035 2055 0
1983 2057 2046 2051 0
1943 2054 2047 2048 0
2195 2054 2038 2044 0
2074 2074 2054 2060 0
1912 2063 2050 2054 0
2176 2067 2050 2046 0
2123 2051 2048 2043 0
1912 2064 2070 2057 0
2062 2050 2051 2071 0
2218 2085 2042 2051 0
1959 2078 2098 2095 0
2012 2062 2049 2077 0
2211 2088 2036 2062 0
2007 2063 2044 2041 0
1936 2051 2021 2030 0
2176 2048 2027 2042 0
2074 2059 2042 2059 0
1894 2053 2030 2032 0
2127 2076 2046 2039 0
2160 2078 2068 2077 0
1913 2057 2045 2047 0
2053 2045 2036 2043 0
2209 2064 2051 2063 0
1956 2067 2048 2066 0
1982 2060 2035 2053 0
2225 2079 2064 2098 0
2017 2043 2020 2017 0
1928 2056 2074 2068 0
2169 2052 2057 2050 0
2103 2070 2051 2071 0
1892 2057 2038 2049 0
2124 2058 2070 2057 0
2182 2069 2051 2044 0
1921 2058 2052 2056 0
2031 2039 2024 2044 0
2202 2055 2053 2051 0
1956 2052 2032 2033 0
1965 2062 2046 2063 0
2200 2053 2043 2050 0
2042 2065 2048 2052 0
1906 2048 2047 2039 0
2167 2079 2040 2049 0
2117 2055 2038 2048 0
1900 2055 2034 2028 0
2085 2048 2036 2041 0
2166 2048 2006 2019 0
1944 2071 2043 2025 0
2036 2073 2133 2144 0
2215 2064 2019 2053 0
1998 2063 2044 2075 0
1955 2059 2029 2063 0
2196 2058 2051 2048 0
2067 2062 2055 2052 0
1907 2050 2037 2039 0
2148 2063 2050 2056 0
2134 2076 2050 2054 0
1912 2057 2045 2049 0
2054 2047 2032 2036 0
2191 2062 2046 2056 0
1942 2061 2038 2045 0
1986 2052 2064 2056 0
2214 2058 2037 2046 0
2006 2069 2058 2055 0
1938 2058 2041 2055 0
2200 2071 2056 2064 0
2094 2063 2076 2070 0
1895 2045 2034 2012 0
2122 2053 2031 2053 0
2145 2049 2024 2055 0
1908 2051 2037 2064 0
2052 2052 2039 2035 0
2217 2084 2064 2058 0
1958 2056 2046 2054 0
1976 2054 2047 2045 0
2204 2056 2045 2055 0
2025 2054 2045 2048 0
1909 2045 2036 2038 0
2181 2063 2053 2063 0
2094 2050 2032 2031 0
1902 2056 2059 2059 0
2116 2059 2030 2038 0
2178 2074 2052 2071 0
1899 2056 2038 2047 0
2034 2055 2000 1995 0
2198 2047 2072 2044 0
1987 2069 2056 2078 0
1968 2066 2046 2055 0
2203 2061 2039 2057 0
2045 2053 2048 2052 0
1905 2048 2038 2051 0
2163 2062 2041 2056 0
2113 2054 2041 2043 0
1898 2052 2041 2045 0
2088 2054 2039 2050 0
2192 2078 2073 2066 0
1913 2041 2032 2045 0
2021 2068 2037 2046 0
2205 2060 2038 2046 0
1962 2043 2048 2060 0
1965 2070 2056 2052 0
2209 2084 2055 2064 0
2075 2073 2057 2047 0
1906 2053 2022 2022 0
2142 2050 2039 2061 0
2131 2052 2022 2034 0
1906 2059 2024 2012 0
2069 2054 2044 2033 0
2199 2056 2044 2045 0
1938 2058 2032 2058 0
2000 2059 2052 2073 0
2218 2065 2055 2062 0
2001 2054 2042 2037 0
1936 2069 2044 2040 0
2190 2060 2052 2053 0
2090 2059 2048 2050 0
1905 2055 2047 2045 0
2123 2043 2040 2043 0
2163 2066 2048 2048 0
1904 2043 2034 2034 0
2050 2060 2042 2058 0
2205 2066 2061 2071 0
1954 2062 2037 2051 0
1972 2043 2031 2037 0
2205 2050 2055 2065 0
2052 2084 2068 2066 0
1919 2054 2020 2020 0
2175 2057 2090 2101 0
2123 2069 2057 2053 0
1892 2055 2050 2062 0
2105 2056 2024 2037 0
2186 2060 2048 2059 0
1909 2048 2029 2034 0
2026 2054 2042 2052 0
2206 2060 2045 2050 0
1965 2049 2042 2040 0
1953 2051 2044 2055 0
2216 2076 2059 2068 0
2034 2046 2037 2044 0
1904 2045 2036 2031 0
2168 2070 2049 2054 0
2130 2068 2062 2065 0
1904 2051 2051 2057 0
2087 2056 2047 2050 0
2190 2069 2042 2044 0
1907 2042 2040 2052 0
2014 2062 2045 2037 0
2207 2059 2030 2067 0
1994 2058 2038 2056 0
1942 2057 2046 2053 0
2195 2061 2047 2062 0
2068 2060 2057 2050 0
1904 2054 2031 2029 0
2143 2058 2057 2072 0
2151 2062 2042 2060 0
1917 2073 2054 2067 0
2072 2057 2048 2044 0
2189 2059 2040 2044 0
1946 2061 2041 2048 0
1999 2059 2042 2036 0
2195 2057 2053 2062 0
2012 2054 2040 2055 0
1940 2061 2053 2050 0
2190 2072 2078 2077 0
2094 2063 2043 2055 0
1878 2044 2034 2039 0
2110 2047 2028 2044 0
2175 2063 2029 2034 0
1917 2060 2066 2061 0
2042 2048 2019 2040 0
2195 2052 2043 2045 0
1957 2060 2048 2046 0
1965 2050 2045 2045 0
2212 2050 2046 2051 0
2037 2058 2058 2055 0
1936 2082 2055 2053 0
2190 2079 2051 2036 0
2114 2076 2045 2060 0
1915 2073 2055 2062 0
2105 2058 2052 2057 0
2169 2055 2046 2044 0
1908 2048 2041 2029 0
2020 2053 2063 2065 0
2191 2042 2039 2051 0
1983 2061 2053 2049 0
1961 2072 2050 2060 0
2208 2062 2005 2040 0
2054 2057 2043 2061 0
1899 2042 2017 2024 0
2146 2054 2051 2044 0
2121 2053 2034 2008 0
1897 2044 2034 2051 0
2088 2063 2046 2058 0
2192 2066 2056 2089 0
1935 2059 2044 2062 0
2014 2048 2047 2049 0
2247 2090 2072 2073 0
2016 2074 2073 2075 0
1931 2039 2027 2029 0
2203 2068 2045 2046 0
2068 2074 2022 2040 0
1902 2060 2042 2051 0
2155 2072 2050 2056 0
2142 2059 2023 2046 0
1904 2058 2041 2044 0
2058 2045 2040 2037 0
2202 2061 2048 2055 0
1951 2053 2036 2039 0
2000 2069 2050 2058 0
2209 2056 2039 2048 0
1991 2043 2034 2030 0
1956 2073 2053 2029 0
2178 2053 2050 2083 0
2095 2069 2054 2087 0
1899 2048 2035 2056 0
2129 2062 2032 2028 0
2155 2062 2062 2076 0
1917 2060 2033 2054 0
2057 2055 2032 2054 0
2192 2052 2047 2048 0
1970 2074 2059 2066 0
1983 2066 2048 2056 0
2210 2068 2052 2058 0
2033 2055 2043 2052 0
1927 2064 2043 2048 0
2194 2087 2064 2069 0
2114 2066 2046 2056 0
1926 2076 2046 2059 0
2102 2054 2040 2047 0
2175 2064 2052 2051 0
1930 2060 2042 2039 0
2034 2056 2057 2077 0
2213 2068 2052 2072 0
1989 2067 2066 2084 0
1961 2059 2040 2043 0
2216 2076 2076 2080 0
2068 2071 2048 2055 0
1924 2072 2063 2068 0
2162 2066 2064 2045 0
2139 2064 2058 2063 0
1901 2055 2042 2043 0
2076 2054 2037 2037 0
2194 2065 2057 2063 0
1910 2046 2039 2037 0
2026 2073 2066 2065 0
2208 2060 2042 2048 0
2007 2064 2056 2070 0
1939 2048 2034 2042 0
2186 2054 2031 2039 0
2066 2052 2044 2019 0
1909 2072 2052 2076 0
2131 2056 2042 2052 0
2153 2068 2032 2065 0
1904 2056 2024 2039 0
2065 2055 2056 2049 0
2196 2060 2048 2064 0
1916 2029 2022 2024 0
2015 2079 2068 2054 0
2214 2074 2060 2077 0
2046 2081 2059 2064 0
1916 2049 2030 2039 0
2182 2059 2033 2036 0
2088 2061 2044 2047 0
1902 2054 2046 2048 0
2133 2064 2057 2062 0
2153 2055 2023 2028 0
1918 2061 2050 2071 0
2048 2063 2039 2050 0
2196 2051 2039 2032 0
1959 2057 2041 2050 0
1976 2052 2034 2072 0
2210 2063 2045 2079 0
2031 2057 2040 2059 0
1914 2052 2040 2024 0
2165 2050 2025 2017 0
2112 2056 2057 2048 0
1886 2042 2031 2068 0
2088 2041 2038 2059 0
2165 2051 2027 2039 0
1934 2071 2058 2066 0
2017 2053 2052 2048 0
2173 2034 2007 2013 0
1988 2064 2039 2049 0
1965 2066 2054 2054 0
2202 2063 2057 2065 0
2069 2064 2048 2064 0
1888 2039 2039 2044 0
2164 2068 2066 2065 0
2138 2059 2028 2027 0
1899 2053 2049 2069 0
2094 2056 2035 2042 0
2186 2056 2030 2030 0
1939 2065 2070 2092 0
2009 2058 2053 2066 0
2213 2066 2044 2067 0
2004 2058 2042 2051 0
1928 2044 2031 2023 0
2186 2054 2040 2030 0
2087 2068 2049 2045 0
1913 2061 2033 2049 0
2157 2069 2074 2082 0
2148 2057 2033 2036 0
1899 2049 2028 2028 0
2063 2062 2049 2064 0
2185 2058 2025 2062 0
1937 2050 2028 2056 0
1974 2049 2044 2042 0
2219 2076 2058 2045 0
2010 2058 2052 2046 0
1938 2070 2063 2061 0
2189 2070 2065 2055 0
2107 2067 2060 2056 0
1898 2053 2062 2055 0
2141 2080 2096 2102 0
2180 2071 2047 2061 0
1923 2062 2053 2060 0
2059 2078 2035 2044 0
2195 2055 2047 2042 0
1958 2045 2032 2040 0
1958 2049 2035 2034 0
2183 2037 2042 2043 0
2047 2065 2045 2042 0
1914 2057 2019 2047 0
2171 2061 2051 2059 0
2109 2051 2031 2027 0
1901 2064 2039 2070 0
2093 2057 2046 2063 0
2188 2060 2039 2059 0
1918 2046 2040 2045 0
2013 2057 2046 2047 0
2197 2054 2037 2044 0
1987 2058 2045 2049 0
1934 2044 2056 2056 0
2206 2066 2047 2040 0
2051 2054 2037 2057 0
1919 2071 2034 2036 0
2174 2071 2060 2071 0
2143 2059 2026 2035 0
1909 2060 2035 2048 0
2091 2071 2088 2085 0
2180 2058 2035 2029 0
1949 2073 2037 2060 0
2004 2051 2034 2048 0
2202 2058 2054 2060 0
2000 2064 2042 2056 0
1935 2050 2057 2051 0
2188 2059 2068 2053 0
2070 2055 2043 2059 0
1890 2049 2027 2046 0
2130 2059 2042 2058 0
2152 2058 2049 2047 0
1898 2053 2050 2039 0
2051 2048 2022 2017 0
2180 2053 2048 2034 0
1960 2065 2040 2051 0
1987 2062 2053 2078 0
2223 2081 2044 2069 0
2037 2058 2036 2062 0
1917 2059 2040 2039 0
2181 2061 2054 2049 0
2103 2055 2043 2059 0
1899 2063 2074 2082 0
2108 2052 2037 2025 0
2177 2063 2036 2042 0
1913 2055 2037 2043 0
2036 2056 2038 2048 0
2206 2062 2045 2052 0
1973 2057 2067 2060 0
1948 2037 2034 2045 0
2228 2079 2050 2053 0
2041 2061 2029 2048 0
1915 2066 2047 2031 0
2156 2053 2045 2047 0
2109 2048 2036 2051 0
1904 2066 2048 2045 0
2108 2067 2055 2063 0
2191 2060 2032 2050 0
1926 2059 2016 2024 0
2014 2052 2079 2068 0
2236 2069 2049 2043 0
1996 2049 2078 2063 0
1944 2052 2017 2028 0
2199 2059 2036 2057 0
2061 2062 2044 2058 0
1897 2052 2046 2050 0
2152 2064 2054 2047 0
2144 2065 2057 2058 0
1904 2059 2048 2049 0
2080 2068 2053 2063 0
2198 2063 2049 2046 0
1937 2049 2037 2042 0
1998 2060 2051 2052 0
2205 2054 2023 2028 0
2012 2075 2053 2064 0
1937 2055 2047 2061 0
2179 2061 2052 2071 0
2079 2060 2026 2044 0
1903 2056 2056 2061 0
2126 2050 2019 2018 0
2147 2063 2048 2047 0
1893 2046 2016 2024 0
2060 2057 2038 2041 0
2200 2080 2046 2061 0
1947 2059 2037 2039 0
1973 2049 2032 2033 0
2212 2068 2044 2046 0
2028 2059 2035 2039 0
1933 2065 2036 2043 0
2172 2054 2050 2059 0
2088 2066 2040 2055 0
1916 2064 2056 2072 0
2104 2051 2045 2046 0
2189 2072 2061 2065 0
1943 2080 2053 2060 0
2020 2045 2035 2043 0
2223 2077 2049 2056 0
1958 2048 2033 2036 0
1970 2061 2051 2055 0
2197 2057 2028 2029 0
2056 2057 2062 2076 0
1913 2054 2041 2061 0
2165 2058 2041 2054 0
2123 2060 2046 2063 0
1897 2054 2043 2046 0
2092 2058 2056 2067 0
2188 2068 2031 2055 0
1920 2050 2037 2039 0
2009 2054 2047 2047 0
2195 2047 2031 2038 0
1984 2054 2050 2051 0
1951 2056 2044 2046 0
2197 2057 2050 2058 0
2067 2059 2048 2054 0
1862 2017 2013 2015 0
2151 2064 2047 2049 0
2148 2068 2038 2049 0
1905 2058 2038 2043 0
2065 2041 2041 2043 0
2204 2071 2054 2053 0
1944 2063 2047 2047 0
2009 2068 2041 2045 0
2205 2057 2044 2052 0
2016 2059 2042 2052 0
1936 2063 2049 2063 0
2192 2059 2038 2055 0
2085 2056 2032 2056 0
1885 2050 2023 2045 0
2122 2046 2039 2049 0
2170 2076 2065 2065 0
1906 2056 2064 2045 0
2059 2065 2063 2050 0
2202 2059 2056 2038 0
1953 2051 2043 2041 0
1984 2061 2041 2052 0
2205 2064 2018 2048 0
2038 2067 2028 2048 0
1917 2058 2029 2040 0
2178 2062 2061 2055 0
2108 2059 2068 2054 0
1890 2050 2069 2054 0
2112 2056 2059 2049 1
2171 2059 2048 2049 1
1933 2073 2052 2060 1
2021 2046 2032 2046 1
2219 2074 2050 2060 1
1976 2063 2042 2055 1
1958 2048 2034 2055 1
2205 2063 2033 2054 2
2059 2068 2042 2060 2
1906 2052 2020 2042 2
2166 2062 2036 2058 2
2131 2065 2045 2052 2
1919 2065 2031 2051 3
2112 2071 2017 2057 3
2185 2053 2003 2043 3
1932 2060 2041 2064 3
2018 2063 2082 2066 3
2220 2068 2076 2057 4
1989 2057 2032 2040 4
1932 2045 2008 2032 4
2196 2056 2054 2063 4
2063 2051 2101 2059 4
1912 2057 2092 2060 5
2153 2060 2050 2063 5
2161 2070 2015 2061 5
1909 2060 2031 2048 5
2078 2069 2047 2051 5
2200 2076 2067 2049 6
1943 2048 2029 2051 6
2004 2059 2049 2055 6
2207 2057 2060 2052 6
1998 2043 2088 2056 6
1913 2046 2080 2030 7
2167 2047 1985 2030 7
2069 2043 1911 2020 7
1906 2047 1992 2048 7
2113 2040 2090 2066 7
2154 2051 2148 2062 7
1899 2056 2091 2040 8
2056 2062 2041 2046 8
2209 2068 2036 2055 8
1973 2070 2068 2081 8
1983 2063 2060 2062 8
2225 2072 2025 2061 8
2040 2061 2008 2048 9
1912 2048 1978 2036 9
2152 2038 1972 2040 9
2128 2057 2004 2072 9
1902 2054 2071 2064 9
2125 2077 2125 2076 9
2185 2068 2091 2053 10
1948 2063 1983 2024 10
2029 2059 1955 2043 10
2211 2062 2038 2056 10
1985 2063 2143 2065 11
1951 2053 2124 2062 11
2182 2048 2005 2029 11
2038 2049 1969 2037 11
1901 2046 2022 2048 12
2155 2058 2088 2064 12
2121 2057 2053 2050 12
1906 2063 2034 2046 12
2080 2056 2049 2042 12
2182 2064 2119 2058 13
1932 2049 2089 2045 13
2021 2066 2026 2037 13
2199 2060 2014 2049 13
1998 2058 2038 2051 14
1949 2055 2032 2052 14
2185 2060 2024 2049 14
2072 2061 2029 2065 14
1913 2055 2077 2062 15
2133 2057 2069 2042 15
2140 2061 2030 2023 15
1918 2061 1980 2029 16
2071 2061 1940 2032 16
2189 2060 1973 2042 16
1953 2051 2057 2051 16
1990 2063 2150 2072 17
2203 2064 2162 2098 17
2038 2073 2065 2068 17
1944 2063 2082 2083 18
2192 2073 2119 2069 18
2112 2071 2100 2063 18
1917 2067 2054 2063 18
2127 2069 2027 2057 19
2162 2068 2040 2051 19
1904 2042 2029 2026 19
2025 2034 1972 2010 20
2179 2041 1933 2018 20
1960 2039 1913 2022 20
1973 2044 1969 2033 21
2198 2065 2067 2050 21
2027 2053 2102 2072 21
1924 2054 2122 2053 22
2156 2051 2030 2034 22
2106 2055 2029 2050 22
1895 2043 2082 2037 22
2097 2058 2126 2065 23
2173 2076 2087 2054 23
1926 2072 1977 2039 23
2023 2056 1954 2029 23
2194 2057 2029 2074 24
1997 2072 2093 2072 24
1992 2078 2074 2079 24
2213 2088 2068 2064 25
2059 2068 2062 2038 25
1914 2055 2117 2050 25
2146 2059 1985 2031 25
2125 2057 1890 2034 26
1911 2058 1996 2052 26
2072 2052 2109 2070 26
2184 2061 2135 2072 27
1932 2050 2061 2047 27
1996 2048 2026 2053 27
2202 2055 2111 2059 28
1996 2062 2162 2074 28
1943 2058 2083 2047 28
2192 2062 2026 2042 28
2077 2062 1948 2036 29
1914 2061 1916 2020 29
2140 2046 1902 2034 29
2139 2063 2105 2083 30
1915 2056 2192 2075 30
2080 2075 2086 2056 30
2202 2070 1936 2024 31
1966 2065 1928 2036 31
1973 2053 2083 2074 31
2187 2064 2188 2082 32
2018 2063 2131 2066 32
1939 2051 2072 2051 32
2190 2051 2061 2039 32
2088 2056 2036 2044 33
1909 2056 1987 2039 33
2105 2052 1947 2047 33
2148 2058 2047 2058 34
1924 2057 2070 2044 34
2041 2072 1970 2040 34
2196 2060 1927 2030 35
1976 2052 1984 2033 35
1982 2059 2116 2069 35
2185 2071 2186 2064 35
2055 2073 2026 2046 36
1926 2068 2064 2066 36
2156 2060 2074 2039 36
2103 2049 2184 2076 36
1917 2060 2065 2046 37
2087 2054 1978 2050 37
2172 2060 1984 2043 37
1938 2054 2088 2060 37
2027 2061 2088 2062 38
2214 2062 2012 2060 38
1996 2058 1963 2056 38
1951 2048 2029 2050 38
2194 2066 2071 2067 39
2067 2062 2008 2026 39
1909 2045 1971 2024 39
2139 2060 2044 2045 40
2142 2060 2146 2114 40
1909 2059 2057 2053 40
2079 2051 1890 2021 40
2173 2056 1932 2039 41
1951 2063 2159 2066 41
2002 2062 2276 2081 41
2210 2067 2166 2062 41
2012 2064 1902 2006 42
1941 2054 1868 2048 42
2176 2056 2089 2072 42
2079 2065 2220 2083 42
1921 2058 2071 2032 43
2133 2063 1907 2011 43
2142 2061 1947 2047 43
1913 2063 2128 2066 43
2055 2062 2144 2065 44
2201 2059 2002 2033 44
1959 2050 1944 2038 44
1991 2064 2060 2059 44
2202 2065 2136 2077 45
2025 2061 2023 2039 45
1919 2053 1893 2010 45
2179 2057 1949 2042 45
2099 2055 2178 2065 46
1923 2073 2198 2088 46
2129 2064 2041 2031 46
2175 2070 1952 2045 46
1910 2047 2033 2020 47
2020 2080 2199 2078 47
2185 2063 2133 2077 47
1973 2062 1923 2043 47
1950 2050 1895 2034 47
2197 2052 2038 2019 48
2039 2057 2117 2067 48
1933 2064 2019 2056 48
2178 2063 1960 2027 48
2112 2060 1956 2041 49
1894 2055 2220 2095 49
2091 2048 2133 2038 49
2174 2051 2007 2048 49
1936 2063 1985 2048 50
2042 2058 2039 2065 50
2205 2059 2168 2073 50
1997 2065 2059 2033 50
1954 2055 1980 2038 51
2169 2053 2004 2062 51
2046 2057 2081 2059 51
1931 2050 2107 2049 51
2150 2054 2114 2047 52
2139 2065 1939 2007 52
1915 2059 1909 2023 52
2083 2062 2060 2061 52
2177 2061 2167 2096 53
1958 2076 2092 2054 53
2006 2060 1933 2030 53
2196 2060 1887 2028 53
1994 2059 2092 2081 54
1944 2062 2125 2053 54
2184 2057 2063 2025 54
2073 2055 1870 2031 54
1918 2055 2177 2092 55
2113 2063 2160 2056 55
2149 2061 2072 2055 55
1931 2054 1985 2040 55
2071 2061 1950 2037 56
2198 2070 2054 2072 56
1960 2048 2007 2024 56
1986 2057 2020 2030 56
2183 2057 2095 2051 57
2015 2057 2044 2052 57
1940 2062 2098 2057 57
2178 2063 2101 2079 57
2116 2070 1947 2037 58
1916 2052 1901 2042 58
2106 2062 2047 2069 58
2159 2060 2236 2066 58
1913 2055 2117 2063 59
2049 2061 1890 2025 59
2205 2055 1974 2047 59
1971 2048 2187 2056 59
1979 2054 2125 2063 60
2197 2055 1815 1988 60
2029 2064 1843 2048 60
1935 2061 2181 2099 60
2152 2062 2313 2116 60
2126 2054 2057 2039 61
1932 2067 1822 2011 61
2086 2065 1956 2027 61
2163 2068 2304 2122 61
1946 2072 2179 2074 62
2028 2052 1919 2017 62
2208 2064 1746 2007 62
1988 2058 2061 2075 62
1957 2052 2255 2070 62
2181 2059 2128 2037 63
2060 2059 1929 2041 63
1919 2055 1992 2056 63
2147 2058 2192 2056 63
2136 2080 2098 2057 63
1911 2050 1953 2033 64
2059 2045 1884 2035 64
2184 2058 2207 2073 64
1941 2053 2161 2065 64
2007 2055 1938 2029 65
2205 2061 1896 2039 65
2001 2064 1901 2021 65
1916 2056 2187 2092 65
2179 2058 2152 2071 65
2080 2063 2063 2039 66
1920 2065 1966 2046 66
2130 2049 1980 2023 66
2143 2065 2095 2066 66
1923 2054 2202 2057 66
2052 2063 2098 2056 67
2211 2069 1924 2037 67
1949 2052 1756 2008 67
1957 2044 2032 2048 67
2215 2063 2202 2059 67
2027 2057 2231 2058 68
1953 2064 1938 2011 68
2182 2060 1895 2075 68
2094 2061 2112 2060 68
1917 2067 2184 2083 69
2107 2063 1984 2031 69
2172 2058 1983 2044 69
1918 2052 2055 2025 69
2029 2049 2148 2045 69
2189 2054 2085 2047 70
1957 2055 1922 2051 70
1966 2062 2080 2072 70
2194 2073 2071 2074 70
2054 2056 2031 2053 71
1924 2051 1951 2031 71
2166 2063 2215 2089 71
2117 2063 2173 2066 71
1923 2064 1943 2030 71
2089 2053 1922 2027 72
2167 2052 2089 2060 72
1934 2057 2102 2065 72
2015 2063 1935 2022 72
2201 2063 1893 2024 73
1987 2062 2084 2079 73
1958 2064 2176 2098 73
2192 2061 2085 2039 73
2063 2056 1876 2036 74
1928 2050 2069 2053 74
2131 2060 2177 2054 74
2131 2057 2091 2030 74
1907 2070 2008 2011 75
2068 2039 1929 2035 75
2198 2064 2122 2096 75
1930 2054 2175 2070 75
2019 2068 2132 2086 76
2199 2065 1860 2021 76
1994 2058 1881 2043 76
1964 2051 2095 2050 76
2188 2064 2221 2072 77
2103 2067 2026 2025 77
1912 2044 1823 2019 77
2100 2049 1954 2044 77
2159 2069 2141 2083 78
1917 2066 2276 2120 78
2046 2063 2079 2054 78
2206 2060 1898 2054 78
1941 2059 2078 2050 78
1991 2054 2124 2060 79
2200 2056 2052 2034 79
2046 2061 1931 1988 79
1933 2058 1871 2041 79
2170 2055 2037 2063 80
2105 2060 2180 2101 80
1903 2046 2024 2046 80
2096 2042 1915 2016 80
2150 2055 2066 2040 81
1941 2060 2242 2056 81
2029 2068 2155 2060 81
2206 2069 1993 2047 81
1978 2056 1941 2032 81
1950 2056 2108 2102 82
2215 2061 2171 2078 82
2062 2053 1940 2019 82
1921 2051 1823 1988 82
2144 2063 1974 2054 83
2113 2056 2144 2107 83
1912 2060 2079 2034 83
2059 2056 1881 1996 83
2159 2071 2040 1980 84
1963 2063 2220 2091 84
2025 2070 2078 2051 84
2211 2061 1903 2025 84
2018 2071 2112 2086 85
1933 2079 2229 2092 85
2204 2066 2164 2083 85
2094 2066 1918 2062 85
1908 2054 1907 2052 86
2132 2063 2010 2040 86
2135 2060 2165 2037 86
1909 2061 2076 2010 86
2078 2057 1980 2048 86
2180 2064 1892 2039 87
1940 2060 2003 2080 87
1987 2069 2281 2099 87
2224 2067 2142 2064 87
2021 2063 2067 2062 88
1948 2052 1756 1983 88
2186 2060 1980 2057 88
2083 2067 2245 2083 88
1902 2052 2052 2040 89
2118 2057 1892 2032 89
2142 2037 1954 2031 89
1940 2069 2244 2072 89
2078 2055 2383 2107 90
2220 2069 2120 2060 90
1988 2076 1767 2020 90
1962 2048 1838 2045 90
2194 2069 2077 2060 90
2039 2070 2167 2071 91
1928 2053 2129 2045 91
2180 2059 1918 1994 91
2091 2050 1960 2078 91
1888 2060 2167 2095 91
2103 2063 2017 2029 92
2177 2074 2072 2057 92
1946 2060 2027 2056 92
2044 2059 2023 2022 92
2212 2054 2094 2084 92
1957 2056 2146 2047 93
1956 2047 2105 2053 93
2201 2063 2031 2031 93
2052 2050 1836 2000 93
1905 2047 1981 2037 93
2152 2072 2213 2096 93
2108 2073 2058 2072 94
1899 2053 1994 2060 94
2091 2052 2052 2067 94
2213 2097 2214 2101 94
2002 2126 2107 2097 94
2076 2122 1912 2071 94
2249 2107 2012 2126 95
2004 2074 2298 2101 95
1950 2070 2199 2055 95
2218 2083 1907 2040 95
2094 2087 1797 2073 95
1934 2078 2194 2110 96
2175 2082 2178 2080 96
2135 2056 2051 2051 96
1904 2065 1821 2006 96
2140 2108 2079 2084 96
2251 2128 2399 2163 96
2009 2135 2302 2176 97
1992 2042 1736 1963 97
2171 2028 1779 2048 97
1876 1952 2175 1977 97
1761 1889 2017 1900 97
2010 1863 1924 1857 97
1939 1919 1744 1909 98
1821 1964 1840 1921 98
2074 1979 2073 1995 98
2114 2006 2057 2007 98
1845 2026 1944 2000 98
2054 2052 2068 2088 98
2211 2061 1885 2009 99
1956 2062 1946 2095 99
1973 2057 2247 2077 99
2226 2089 2238 2089 99
2051 2078 2172 2077 99
1941 2064 1867 2021 99
2197 2081 1984 2078 100
2138 2096 2122 2092 100
1916 2080 2038 2067 100
2133 2056 1858 2052 100
2210 2079 2026 2006 100
1942 2082 2081 2052 101
2049 2092 2378 2093 101
2352 2195 2036 2142 101
2098 2178 2042 2184 101
2037 2195 2280 2200 101
2238 2079 2218 2084 101
1999 2000 2165 2013 102
1829 1976 1742 1899 102
2112 1996 1685 1973 102
2080 2010 2122 2061 102
1849 2016 2057 2027 102
2039 2020 1909 1967 102
2165 2040 2011 2013 103
1915 2044 2141 2037 103
2007 2061 2157 2079 103
2194 2066 2012 2066 103
2006 2056 1943 2033 103
1949 2055 1980 2056 104
2189 2070 2073 2072 104
2080 2058 1945 2034 104
1909 2057 1877 2020 104
2151 2083 2290 2073 104
2150 2078 2093 2096 104
1911 2053 1801 1985 105
2087 2060 1891 2000 105
2193 2072 2326 2139 105
1947 2078 2304 2107 105
1990 2066 2087 2067 105
2213 2053 1709 2000 105
2020 2070 2099 2081 105
1926 2069 2162 2043 106
2216 2078 2047 2039 106
2100 2057 2022 2031 106
1914 2066 2042 2072 106
2126 2052 1906 2012 106
2174 2091 2082 2111 106
1938 2089 2186 2076 107
2079 2096 2248 2118 107
2238 2087 2053 2080 107
1955 2041 1661 1998 107
1949 2047 2144 2114 107
2181 2044 2187 2066 107
2014 2049 2213 2056 107
1908 2040 1840 1983 108
2158 2021 1543 1983 108
2109 2060 2290 2111 108
1889 2054 2287 2081 108
2105 2066 2310 2085 108
2192 2052 1595 1949 108
1927 2056 1860 2061 109
2028 2064 2330 2084 109
2210 2081 2350 2092 109
1988 2080 1943 2034 109
1976 2042 1547 1960 109
2210 2062 2096 2075 109
2048 2071 2406 2071 109
1890 2056 2263 2069 110
2159 2055 1863 2013 110
2121 2026 1821 2056 110
1905 2068 2129 2049 110
2076 2049 2205 2092 110
2191 2068 2056 2035 110
1927 2042 1868 2005 111
2013 2040 1806 2017 111
2225 2070 2201 2100 111
2008 2077 2164 2049 111
1935 2059 2018 2044 111
2203 2075 2080 2072 111
2075 2064 2033 2064 112
1900 2067 2002 2047 112
2153 2060 1832 2023 112
2142 2045 2028 2021 112
1895 2054 2275 2031 112
2069 2076 2356 2121 112
2203 2064 2046 2083 112
1956 2048 1584 2003 113
1986 2043 2002 2059 113
2206 2064 2237 2047 113
2017 2068 2199 2070 113
1924 2058 1939 2021 113
2167 2035 1704 2001 113
2102 2072 2239 2057 114
1902 2068 2256 2080 114
2126 2077 2197 2073 114
2163 2048 1632 1993 114
1912 2047 1756 2037 114
2030 2053 2318 2111 114
2200 2086 2326 2087 115
1968 2080 2086 2046 115
1959 2033 1724 2015 115
2232 2051 1921 1957 115
2058 2063 2116 2056 115
1910 2082 2401 2112 115
2179 2081 2097 2090 115
2133 2060 1993 2056 115
1900 2047 1858 1966 116
2113 2061 1976 2057 116
2188 2071 2055 2043 116
1930 2069 2069 2079 116
2013 2053 2005 2066 116
2197 2053 1895 2007 116
1989 2074 2117 2052 116
1948 2077 2297 2122 116
2214 2079 1936 2053 117
2047 2044 1753 2055 117
1890 2069 2197 2054 117
2153 2068 2224 2051 117
2135 2080 2242 2056 117
1903 2049 1726 1984 117
2059 2022 1844 2028 117
2189 2078 2314 2118 117
1928 2066 2202 2091 117
2009 2074 2005 2053 117
2215 2042 1646 2012 117
2005 2063 2068 1973 117
1937 2068 2276 2103 118
2204 2082 2282 2079 118
2088 2066 1905 2048 118
1906 2040 1689 2044 118
2128 2071 2239 2061 118
2156 2059 2154 2086 118
1892 2053 2117 2053 118
2053 2040 1911 2069 118
2209 2063 1900 2026 118
1939 2057 2230 2072 118
1981 2058 2145 2036 118
2207 2038 1850 1984 118
2020 2046 1928 2068 118
1925 2071 2140 2070 118
2191 2060 2213 2102 118
2112 2070 2114 2068 118
1906 2059 1850 2030 118
2114 2036 1900 2023 119
2167 2044 1931 2048 119
1903 2047 1914 2031 119
2037 2059 2268 2043 119
2207 2052 1911 1966 119
1981 2063 2190 2056 119
1975 2081 2146 2080 119
2220 2068 2072 2108 119
2045 2077 2116 2089 119
1904 2039 1804 1967 119
2160 2046 1911 2081 119
2116 2064 2277 2052 119
1890 2061 2088 2038 119
2114 2034 1812 1943 119
2194 2069 2032 2083 119
1925 2076 2205 2084 119
2015 2081 2330 2109 119
2218 2055 1861 1989 119
1996 2041 1723 2050 119
1942 2065 2243 2058 119
2199 2084 2297 2104 119
2080 2071 1947 2014 119
1890 2020 1673 2024 119
2153 2078 2219 2127 119
2140 2064 2298 2093 119
1904 2080 2203 2085 119
2075 2023 1695 1973 120
2207 2044 1908 2019 120
1930 2070 2177 2068 120
1999 2053 2230 2076 120
2223 2065 1956 2042 120
1992 2023 1835 2018 120
1924 2037 2047 2018 120
2180 2053 2001 2010 120
2080 2037 2074 2037 120
1878 2049 2126 2048 120
2152 2070 1986 2040 120
2150 2056 1970 2098 120
1903 2085 2280 2055 120
2060 2060 2152 2065 120
2233 2061 1867 1957 120
1929 2023 1721 2058 120
1974 2070 2269 2116 120
2207 2072 2380 2129 120
2030 2075 2178 2053 120
1917 2008 1536 1908 121
2196 2076 2068 2119 121
2105 2078 2365 2126 121
1906 2078 2204 2115 121
2113 2051 1985 2032 121
2182 2051 1872 2016 121
1901 2031 1881 1997 121
2043 2065 2119 2086 121
2208 2064 2179 2036 121
1964 2072 2120 2075 121
1968 2060 1927 2042 121
2211 2045 1835 2019 121
2050 2080 2013 2045 121
1890 2047 2210 2009 121
2182 2066 2102 2056 121
2119 2045 2065 2075 121
1893 2066 2068 2084 121
2095 2065 2138 2059 121
2181 2081 2055 2061 121
1922 2061 1976 2056 121
2016 2048 1967 2030 121
2227 2059 2125 2040 121
1986 2069 2023 2057 121
1942 2059 2045 2044 121
2199 2039 1924 2012 121
2078 2079 2076 2066 121
1896 2066 2067 2059 121
2157 2071 2133 2081 121
2143 2060 2080 2062 121
1892 2049 2017 2048 121
2069 2055 1974 2028 121
2202 2062 1978 2052 121
1931 2054 2082 2026 121
1987 2059 2082 2062 121
2216 2064 2054 2041 121
2003 2062 1892 2046 121
1931 2062 2085 2056 121
2195 2057 2066 2056 121
2085 2063 2141 2067 121
1901 2065 1982 2044 121
2136 2063 1956 2030 121
2172 2073 2086 2060 121
1908 2060 2127 2054 121
2056 2061 2055 2070 121
2202 2048 1916 2020 121
1951 2044 1994 2035 121
1976 2071 2100 2044 120
2216 2076 2096 2060 120
2032 2060 1994 2058 120
1908 2036 1964 2006 120
2208 2070 2175 2094 120
2115 2067 2149 2052 120
1900 2072 2109 2067 120
2117 2056 1968 2028 119
2177 2065 2009 2053 119
1910 2052 2073 2063 119
2032 2053 2043 2053 119
2207 2053 2051 2049 119
1965 2049 1997 2032 119
1955 2050 2005 2036 118
2204 2056 2088 2051 118
2044 2056 2027 2039 118
1911 2044 1959 2033 118
2168 2055 2056 2040 118
2129 2055 2062 2037 117
1893 2060 2196 2078 117
2095 2058 2109 2077 117
2183 2046 1904 2035 117
1924 2072 2059 2079 117
2007 2052 2075 2085 116
2213 2061 2136 2062 116
1985 2050 2051 2046 116
1927 2044 1963 2021 116
2204 2052 2044 2053 115
2065 2048 2068 2044 115
1897 2035 2048 2032 115
2145 2043 2025 2033 115
2150 2060 2051 2057 114
1896 2044 1994 2045 114
2064 2045 2059 2070 114
2217 2054 2025 2026 113
1929 2046 2023 2055 113
1984 2055 2132 2098 113
2209 2056 2090 2064 113
1997 2052 2090 2056 112
1910 2044 2024 2024 112
2191 2054 1994 2062 112
2096 2062 2052 2105 111
1912 2057 1972 2034 111
2156 2050 2098 2058 111
2168 2061 2081 2062 110
1907 2052 2081 2046 110
2052 2058 1976 2055 110
2205 2062 1979 2050 109
1947 2058 2061 2048 109
1983 2060 2142 2075 109
2218 2060 2037 2031 108
2044 2064 2034 2050 108
1894 2046 1975 2055 107
2201 2061 2126 2084 107
2083 2055 2053 2049 107
1884 2046 2028 2044 106
2136 2051 2060 2049 106
2199 2053 2068 2069 106
1936 2054 2077 2063 105
2059 2052 1991 2036 105
2203 2061 2001 2042 105
1951 2051 2043 2047 104
1947 2050 2004 2026 104
2211 2051 1952 2030 104
2026 2050 2011 2038 103
1890 2058 2077 2065 103
2156 2063 2146 2059 103
2130 2066 2091 2053 102
1894 2053 1905 2034 102
2083 2059 2062 2061 102
2188 2068 2058 2066 101
1927 2079 2164 2066 101
2005 2060 2046 2045 101
2214 2058 2011 2055 100
2006 2066 2052 2064 100
1939 2058 2006 2031 100
2197 2058 2000 2037 99
2067 2063 2060 2053 99
1884 2049 2085 2057 99
2170 2058 2090 2055 98
2152 2059 2036 2045 98
1907 2060 2005 2044 98
2075 2061 2021 2064 97
2198 2061 2000 2059 97
1947 2060 2033 2061 97
1995 2056 2104 2053 96
2210 2051 2107 2055 96
2022 2066 2052 2055 95
1926 2057 1914 2027 95
2198 2067 2025 2064 95
2106 2071 2092 2089 94
1904 2060 2078 2050 94
2124 2059 2064 2050 94
2162 2060 2076 2036 93
1900 2050 2071 2045 93
2033 2045 2027 2031 92
2203 2060 1962 2022 92
1940 2046 2007 2060 92
1970 2058 2109 2076 91
2225 2059 2107 2077 91
2044 2056 2044 2035 91
1919 2036 1925 2008 90
2171 2059 2005 2050 90
2104 2054 2106 2054 89
1896 2063 2090 2057 89
2108 2056 2063 2043 89
2166 2065 1946 2031 88
1919 2053 1965 2049 88
2026 2063 2110 2062 87
2218 2060 2127 2068 87
1994 2069 2112 2061 86
1953 2055 2027 2039 86
2191 2059 1974 2045 86
2063 2061 2010 2050 85
1911 2050 2074 2037 85
2168 2076 2076 2041 84
2130 2060 2036 2049 84
1904 2062 1993 2037 83
2091 2067 1961 2029 83
2190 2064 2089 2061 82
1950 2068 2152 2092 82
2002 2059 2099 2071 81
2217 2067 2029 2048 81
2004 2064 1960 2033 81
1940 2048 2029 2043 80
2184 2060 2067 2058 80
2063 2060 2039 2044 79
1904 2053 1948 2046 79
2122 2063 2084 2059 78
2146 2053 2085 2027 78
1887 2046 2130 2052 77
2072 2045 2008 2003 77
2205 2064 2026 2068 76
1949 2066 2049 2073 76
1975 2041 1880 2023 75
2198 2066 2013 2061 75
2020 2064 2176 2074 74
1933 2061 2214 2066 74
2181 2055 2143 2073 73
2085 2044 1970 2019 73
1890 2039 1979 2030 72
2101 2049 2030 2045 72
2165 2055 2021 2046 71
1916 2060 2015 2042 71
2039 2063 1999 2042 70
2208 2070 2020 2064 70
1981 2092 2050 2058 70
1979 2068 2124 2071 69
2222 2076 1915 2027 69
2061 2068 1936 2039 68
1932 2070 2088 2076 68
2149 2068 2224 2111 68
2103 2054 2232 2118 67
1894 2044 2007 2040 67
2090 2048 1970 2024 66
2157 2052 2064 2043 66
1922 2051 2082 2048 66
2014 2042 2049 2034 65
2190 2056 2036 2041 65
1975 2047 2018 2032 64
1961 2051 1999 2044 64
2195 2060 2014 2053 64
2087 2068 2015 2060 63
1921 2064 1987 2048 63
2150 2062 2010 2064 63
2131 2068 2015 2051 62
1925 2078 2070 2067 62
2071 2063 2034 2025 62
2180 2060 2011 2043 61
1947 2057 2001 2012 61
2010 2048 2102 2059 61
2200 2059 2189 2087 60
2009 2063 2163 2087 60
1946 2068 2056 2060 60
2185 2059 1957 2025 59
2094 2060 1984 2037 59
1917 2057 2108 2080 58
2123 2060 2101 2071 58
2157 2063 2016 2051 58
1918 2071 1932 2050 57
2072 2079 2028 2064 57
2216 2071 2129 2068 57
1980 2057 2121 2048 56
1982 2053 2023 2030 56
2187 2060 1979 2039 56
2029 2060 2015 2061 55
1934 2055 2053 2046 55
2169 2062 2043 2058 55
2096 2056 1974 2026 54
1908 2063 1974 2032 54
2098 2047 2074 2061 54
2150 2054 2186 2104 53
1930 2053 2088 2042 53
2031 2049 1936 2012 53
2183 2061 1915 2042 52
1973 2054 2149 2095 52
1969 2049 2177 2069 52
2193 2060 2127 2058 51
2054 2058 2020 2038 51
1926 2048 1991 2044 51
2156 2062 2062 2061 50
2130 2062 2056 2057 50
1926 2064 1996 2045 49
2096 2063 1954 2051 49
2188 2074 2032 2080 49
1959 2065 2104 2067 49
2041 2075 2129 2077 48
2212 2071 2066 2071 48
2013 2076 1985 2055 48
1950 2057 1957 2056 47
2179 2059 2082 2068 47
2068 2056 2136 2054 47
1902 2042 2090 2023 46
2122 2043 2016 2017 46
2116 2046 1973 2038 46
1901 2044 2036 2040 45
2067 2053 2031 2037 45
2176 2054 1955 2014 45
1940 2042 1937 2038 44
1981 2048 2070 2034 44
2191 2049 2152 2072 44
2004 2050 2113 2047 43
1937 2054 2033 2047 43
2167 2062 1973 2054 43
2092 2064 2034 2061 42
1925 2064 2027 2048 42
2131 2066 1998 2038 42
2161 2068 2012 2056 41
1945 2078 2080 2073 41
2058 2065 2172 2083 41
2184 2065 2112 2052 40
1979 2061 2039 2037 40
1979 2050 1962 2035 40
2192 2060 2037 2053 39
2030 2056 2031 2055 39
1926 2047 2014 2039 39
2158 2052 2039 2059 38
2104 2057 2012 2051 38
1916 2058 1987 2030 38
2101 2058 2072 2064 38
2156 2058 2124 2046 37
1923 2050 2113 2042 37
2024 2052 2056 2044 37
2197 2064 1993 2048 36
1995 2065 2056 2068 36
1965 2069 2062 2045 36
2180 2056 2046 2048 36
2058 2073 2048 2053 35
1927 2060 2060 2048 35
2159 2070 2065 2056 35
2133 2063 1994 2051 35
1922 2067 1998 2047 34
2094 2066 1992 2049 34
2191 2064 2066 2068 34
1944 2065 2119 2061 34
2000 2044 2075 2046 34
2228 2088 2048 2064 33
2003 2066 1992 2042 33
1956 2068 2033 2062 33
2169 2054 2057 2042 33
2074 2066 2086 2060 32
1914 2063 2046 2056 32
2140 2066 2055 2058 32
2133 2050 2030 2046 32
1920 2054 2035 2051 32
2066 2060 2042 2053 31
2186 2060 2022 2051 31
1951 2055 2050 2053 31
1985 2044 2022 2037 31
2188 2049 2010 2044 30
2017 2050 2019 2053 30
1939 2050 2036 2045 30
2160 2050 2016 2044 30
2099 2067 2018 2044 29
1922 2059 2002 2066 29
2128 2067 2108 2068 29
2154 2071 2130 2057 29
1929 2061 2096 2042 28
2052 2048 2048 2044 28
2188 2055 2030 2051 28
1975 2048 2066 2057 28
1981 2062 2054 2050 27
2198 2067 2021 2050 27
2037 2056 1982 2057 27
1938 2063 2069 2066 27
2152 2059 2091 2055 26
2094 2052 2079 2041 26
1935 2068 2061 2050 26
2096 2059 2013 2053 26
2173 2071 2045 2070 25
1947 2064 2040 2052 25
2039 2060 2030 2044 25
2209 2077 2042 2078 25
1984 2061 2038 2061 25
1978 2071 2044 2058 25
2192 2074 2062 2059 24
2057 2067 2042 2057 24
1934 2064 2039 2051 24
2148 2069 2042 2057 24
2120 2049 2037 2040 24
1916 2057 2042 2051 24
2067 2053 2032 2044 23
2167 2056 2031 2039 23
1963 2071 2042 2050 23
1999 2050 2043 2048 23
2182 2057 2048 2045 23
2016 2061 2056 2063 22
1947 2053 2039 2042 22
2188 2073 2065 2059 22
2077 2055 2065 2045 22
1919 2050 2045 2037 22
2126 2052 2043 2048 21
2137 2058 2038 2049 21
1958 2087 2062 2067 21
2063 2058 2039 2047 21
2197 2083 2060 2061 21
1974 2060 2043 2060 20
1979 2050 2038 2056 20
2214 2072 2054 2065 20
2036 2092 2061 2061 20
1947 2062 2050 2058 19
2168 2069 2052 2062 19
2071 2047 2021 2041 19
1929 2060 2040 2052 19
2103 2062 2043 2044 18
2155 2080 2049 2054 18
1920 2041 2037 2034 18
2035 2053 2042 2053 18
2190 2070 2054 2056 17
1977 2054 2049 2048 17
1968 2043 2035 2047 17
2185 2064 2047 2057 17
2049 2069 2050 2062 17
1927 2048 2033 2039 16
2155 2041 2034 2045 16
2116 2051 2054 2060 16
1922 2057 2047 2052 16
2096 2056 2047 2033 15
2185 2080 2069 2085 15
1942 2051 2014 2048 15
2026 2059 2016 2050 15
2203 2069 2009 2052 15
2015 2075 2092 2078 15
1960 2067 2092 2054 14
2192 2072 2116 2079 14
2052 2054 2071 2035 14
1912 2062 2070 2052 14
2142 2060 2057 2055 14
2120 2056 2042 2039 14
1917 2047 2016 2054 14
2080 2051 2028 2052 13
2189 2076 2042 2068 13
1939 2056 2032 2032 13
2015 2060 2048 2046 13
2203 2057 2054 2057 13
2009 2070 2050 2063 13
1949 2058 2050 2055 13
2169 2064 2043 2039 13
2081 2054 2055 2075 13
1908 2048 2022 2023 13
2124 2078 2069 2073 12
2169 2095 2058 2047 12
1922 2062 2072 2068 12
2057 2055 2025 2046 12
2222 2095 2081 2092 12
1959 2054 2026 2037 12
1999 2068 2072 2095 12
2172 2041 2007 2022 12
2007 2051 2022 2025 12
1928 2043 2034 2040 12
2157 2044 2042 2052 12
2087 2053 2026 2040 12
1899 2042 2014 2033 12
2082 2030 2012 2014 12
2132 2033 2027 2037 12
1942 2078 2047 2052 12
2035 2066 2041 2049 12
2218 2097 2088 2067 12
2001 2066 2067 2080 12
1975 2069 2044 2061 12
2198 2081 2052 2075 11
2056 2060 2044 2048 11
1956 2077 2070 2065 11
2153 2064 2081 2084 11
2131 2067 2046 2061 11
1921 2052 2048 2043 11
2105 2071 2055 2041 11
2169 2066 2068 2070 11
1950 2065 2036 2044 11
2001 2042 2009 2044 10
2186 2058 2026 2038 10
1988 2055 2041 2040 10
1957 2061 2065 2069 10
2187 2060 2031 2061 10
2066 2057 2049 2063 10
1919 2063 2031 2043 10
2140 2063 2050 2055 9
2108 2035 2043 2047 9
1949 2079 2057 2061 9
2054 2047 2029 2034 9
2184 2079 2043 2045 9
1949 2047 2053 2056 9
2004 2050 2043 2040 8
2186 2040 2048 2047 8
2018 2066 2041 2029 8
1945 2057 2052 2060 8
2181 2080 2039 2060 8
2086 2064 2060 2062 8
1906 2025 2051 2035 8
2128 2074 2044 2061 7
2160 2074 2049 2070 7
1929 2086 2028 2055 7
2046 2048 2040 2047 7
2187 2050 2041 2041 7
1952 2055 2054 2069 7
1958 2024 2017 2020 7
2201 2051 2057 2068 7
2034 2068 2049 2058 7
1921 2048 2037 2017 7
2176 2074 2124 2128 6
2095 2039 2005 2009 6
1904 2053 2034 2048 6
2133 2082 2057 2082 6
2175 2065 2045 2053 6
1929 2060 2041 2035 6
2038 2044 2054 2048 6
2196 2057 2069 2062 6
1984 2079 2065 2069 5
1976 2058 2009 2033 5
2212 2082 2063 2071 5
2044 2041 2052 2067 5
1929 2034 2046 2058 5
2143 2049 2026 2038 5
2124 2057 2042 2054 5
1926 2078 2062 2065 4
2096 2060 2040 2049 4
2176 2057 2052 2053 4
1928 2042 2030 2022 4
1977 2020 2026 2021 4
2183 2036 2024 2005 4
2006 2066 2072 2074 4
1947 2076 2048 2032 3
2182 2066 2047 2060 3
2053 2061 2058 2052 3
1909 2041 1993 2021 3
2131 2048 2100 2119 3
2146 2064 2029 2067 3
1918 2054 2047 2043 3
2065 2052 2051 2062 2
2189 2058 2040 2034 2
1952 2059 2054 2054 2
1997 2059 2052 2046 2
2199 2060 2055 2053 2
2019 2065 2049 2040 2
1969 2086 2064 2071 2
2167 2058 2044 2045 1
2092 2035 2028 2019 1
1932 2065 2041 2052 1
2133 2088 2074 2079 1
2158 2091 2032 2044 1
1939 2083 2070 2098 1
2066 2072 2039 2060 1
2188 2068 2040 2064 1
1970 2054 2044 2055 1
1975 2042 2016 2017 0
2207 2046 2027 2033 0
2039 2072 2074 2078 0
1924 2050 2015 2033 0
2168 2060 2059 2079 0
2099 2047 2009 2026 0
1916 2051 2037 2036 0
2099 2043 2032 2035 0
2162 2052 2056 2063 0
1935 2060 2043 2026 0
2031 2060 2059 2066 0
2198 2055 2028 2050 0
1994 2070 2079 2081 0
1922 1998 2030 2020 0
2222 2089 2080 2087 0
2056 2073 2029 2075 0
1921 2084 2013 2056 0
2152 2069 2030 2044 0
2109 2030 2074 2085 0
1886 2044 2004 2007 0
2077 2054 2052 2062 0
2178 2064 2039 2052 0
1941 2061 2047 2040 0
2015 2053 2053 2051 0
2201 2059 2049 2060 0
1992 2050 2043 2043 0
1948 2053 2040 2043 0
2177 2053 2036 2049 0
2057 2052 2035 2010 0
1901 2039 2041 2034 0
2137 2047 2029 2057 0
2146 2070 2011 2037 0
1915 2062 2022 2028 0
2061 2067 2087 2091 0
2211 2068 2060 2089 0
1950 2046 2057 2062 0
1991 2067 2031 2050 0
2168 2039 2037 2033 0
2046 2088 2077 2075 0
1921 2051 2017 2037 0
2183 2062 2050 2058 0
2106 2061 2035 2023 0
1897 2054 2037 2076 0
2104 2049 2055 2040 0
2173 2058 2065 2061 0
1917 2061 2037 2060 0
2050 2067 2040 2042 0
2222 2080 2076 2109 0
1940 2028 2030 2034 0
1966 2037 2025 2028 0
2175 2048 2036 2047 0
2048 2065 2057 2087 0
1921 2061 2050 2057 0
2177 2074 2072 2057 0
2118 2060 2049 2043 0
1912 2057 2053 2050 0
2096 2060 2036 2052 0
2182 2073 1979 2044 0
1930 2045 1960 2030 0
2025 2061 1957 2048 0
2193 2052 2071 2086 0
1989 2061 2165 2077 0
1956 2054 2208 2059 0
2195 2055 2136 2032 0
2057 2062 2041 2046 0
1911 2053 2016 2044 0
2144 2047 2044 2049 0
2126 2064 2052 2052 0
1905 2063 2042 2053 0
2085 2060 2027 2051 0
2188 2064 2025 2053 0
1941 2059 2016 2044 0
1991 2050 2020 2046 0
2213 2063 2022 2049 0
2021 2068 2009 2062 0
1960 2067 1987 2053 0
2176 2048 1980 2042 0
2095 2072 1964 2054 0
1921 2061 1982 2049 0
2121 2055 2007 2051 0
2159 2069 2121 2076 1
1915 2053 2165 2028 1
2054 2058 2156 2052 1
2189 2050 2083 2038 1
1948 2064 2057 2055 1
1975 2053 2116 2063 2
2196 2056 2153 2054 2
2020 2056 2100 2042 2
1930 2049 2025 2040 3
2169 2060 2025 2063 3
2103 2057 2021 2050 4
1896 2056 2008 2046 4
2122 2062 1989 2051 5
2163 2060 2001 2046 5
1921 2047 2011 2050 6
2050 2067 2022 2048 6
2195 2063 2005 2045 7
1981 2065 2016 2051 7
1983 2066 2032 2061 8
2216 2079 1977 2049 8
2068 2078 1950 2044 9
1936 2067 1923 2060 9
2168 2065 2045 2068 10
2109 2055 2162 2052 10
1911 2064 2068 2008 11
2102 2061 2122 2060 11
2164 2064 2121 2078 12
1915 2053 2223 2087 12
2003 2048 2203 2086 12
2183 2054 2034 2033 13
1983 2049 1998 2040 13
1944 2048 1988 2032 14
2182 2052 1939 2028 14
2046 2050 1887 2018 15
1907 2049 1845 2041 15
2120 2036 2080 2061 16
2120 2040 2176 2048 16
1927 2044 2072 2009 17
2072 2048 1957 2014 17
2194 2067 2028 2050 18
1948 2058 2208 2134 18
2007 2060 2167 2081 19
2201 2060 1997 2048 19
2026 2073 1950 2042 20
1959 2078 2102 2073 20
2206 2089 2118 2089 21
2104 2074 2040 2061 21
1922 2051 1940 2029 22
2108 2039 1964 2028 22
2138 2050 2065 2027 23
1922 2049 2069 2031 23
2062 2056 2088 2059 24
2188 2063 1929 2027 24
1952 2059 2078 2092 25
1974 2053 2132 2057 25
2174 2054 2174 2096 26
2037 2060 2022 2057 26
1929 2044 1976 2029 27
2166 2059 2041 2049 27
2112 2066 2057 2054 28
1922 2063 2024 2036 28
2111 2057 1998 2055 29
2165 2061 1940 2031 29
1920 2041 1991 2045 29
2030 2049 2035 2013 30
2182 2058 2101 2068 30
1981 2067 2046 2062 31
1962 2061 2014 2074 31
2187 2065 2045 2078 32
2055 2078 2179 2082 32
1934 2058 2145 2057 32
2143 2058 2077 2046 33
2106 2069 2051 2032 33
1929 2064 2069 2052 34
2109 2061 2004 2050 34
2198 2074 2031 2065 34
1931 2052 2016 2060 35
2024 2057 2009 2040 35
2196 2056 1951 2054 36
2008 2061 1903 2017 36
1963 2054 1969 2053 36
2181 2060 2064 2056 37
2066 2062 2235 2081 37
1917 2056 2103 2021 38
2142 2055 2030 2018 38
2116 2052 1988 2047 38
1892 2062 1957 2029 39
2045 2047 2017 2053 39
2184 2068 2188 2076 40
1950 2057 2213 2061 40
1994 2059 2155 2051 40
2199 2063 2034 2041 41
2000 2050 2004 2066 41
1926 2039 2052 2057 42
2175 2052 1995 2054 42
2080 2054 1855 2009 42
1928 2060 1929 2021 43
2143 2063 1993 2037 43
2168 2071 1951 2018 44
1922 2056 1923 2045 44
2046 2060 2199 2106 44
2207 2076 2304 2119 45
1969 2066 2228 2067 45
1971 2049 2036 2015 46
2198 2054 2014 2037 46
2037 2052 1990 2031 46
1923 2048 1943 2043 47
2162 2059 2026 2062 47
2107 2061 1972 2024 48
1880 2064 1927 2029 48
2121 2072 2091 2046 48
2187 2078 2309 2131 49
1944 2070 2239 2088 49
2040 2061 2057 2078 49
2212 2067 1851 2026 50
1989 2072 1943 2052 50
1971 2070 1922 2029 51
2192 2060 2026 2104 51
2048 2056 2110 2074 52
1898 2054 2249 2066 52
2135 2048 2088 2014 52
2125 2048 2050 2050 53
1905 2059 2078 2047 53
2086 2064 1993 2038 54
2179 2062 1919 2038 54
1925 2052 1887 2008 54
2001 2055 2123 2077 55
2189 2052 1970 2012 55
2004 2049 1898 2056 56
1930 2052 2201 2064 56
2181 2060 2415 2136 57
2065 2065 2260 2076 57
1915 2051 1892 2014 57
2153 2059 1807 2003 58
2131 2062 2060 2097 58
1921 2064 1928 2030 59
2035 2049 1868 2030 59
2197 2064 2098 2030 59
1955 2056 2442 2117 60
2004 2067 2234 2081 60
2203 2066 1944 2023 61
2022 2064 1781 2024 61
1938 2056 2077 2062 62
2171 2058 2146 2051 62
2084 2054 1982 2036 62
1918 2058 1791 2029 63
2121 2054 1913 2052 63
2154 2058 2105 2053 63
1930 2051 2038 2003 64
2046 2073 2128 2077 64
2193 2080 2297 2125 65
1988 2079 2174 2101 65
1987 2066 2017 2076 65
2210 2072 1976 2041 66
2044 2053 2080 2037 66
1929 2057 2223 2086 66
2163 2055 2122 2075 67
2113 2063 1826 2040 67
1892 2046 1903 2037 67
2088 2057 2011 2018 68
2155 2059 2113 2036 68
1925 2052 1992 2018 68
2033 2043 1824 2010 69
2209 2064 1978 2035 69
1991 2068 2154 2044 69
1954 2054 2098 2027 70
2176 2058 2089 2060 70
2063 2065 2076 2113 70
1916 2046 1933 2022 71
2146 2058 1946 2036 71
2124 2064 2205 2036 71
1917 2066 2364 2106 72
2082 2070 2232 2108 72
2198 2080 1887 2042 73
1949 2070 1880 2036 73
2015 2073 2083 2071 73
2202 2062 1919 2057 74
1990 2055 1817 2017 74
1940 2040 1957 2019 74
2175 2053 2226 2059 75
2084 2055 2031 1997 75
1894 2044 2067 2045 75
2127 2048 2000 2019 76
2160 2066 1978 2027 76
1903 2059 2136 2092 77
2088 2068 2036 2070 77
2190 2057 2218 2109 77
1960 2058 2203 2072 78
1980 2066 1943 2006 78
2205 2052 1890 2042 78
2030 2064 1964 2036 79
1900 2028 1963 1998 79
2186 2069 2133 2010 80
2083 2070 2329 2159 80
1911 2072 2152 2122 80
2117 2065 1903 2061 81
2159 2057 1836 2027 81
1913 2064 2112 2024 81
2048 2063 2182 2094 82
2219 2065 2062 2049 82
1984 2055 1661 1992 82
1982 2057 2045 2075 83
2195 2071 2252 2090 83
2038 2055 2203 2083 83
1920 2052 1977 2018 84
2167 2064 1932 2066 84
2113 2076 2135 2085 84
1897 2064 2142 2067 85
2080 2043 1835 1965 85
2193 2049 2008 2049 85
1922 2062 2272 2094 86
2029 2058 2204 2099 86
2207 2057 2012 2045 86
1989 2049 1757 1970 87
1933 2050 1989 2041 87
2220 2071 2372 2088 87
2059 2072 2192 2075 87
1927 2063 1856 2017 88
2120 2048 1691 2018 88
2171 2064 2113 2068 88
1907 2058 2218 2049 89
2102 2064 2200 2074 89
2205 2061 1792 2015 89
1941 2061 1883 2059 89
1986 2073 2439 2136 90
2219 2060 2088 2035 90
2000 2054 1919 2034 90
1928 2051 1992 2033 91
2180 2063 2183 2076 91
2084 2063 2083 2057 91
1903 2049 1773 1990 91
2129 2044 1938 2018 92
2145 2066 2186 2095 92
1913 2070 2096 2089 92
2059 2055 1959 2030 92
2190 2046 1844 1983 93
1948 2062 2162 2074 93
1952 2061 2303 2097 93
2204 2068 2048 2058 93
2046 2059 1896 2055 94
1934 2041 1998 2024 94
2180 2061 1960 2056 94
2097 2083 2336 2122 94
1901 2050 1936 2018 94
2100 2039 1908 1998 95
2161 2067 2180 2103 95
1911 2061 2194 2081 95
2026 2063 2165 2097 95
2199 2051 1865 1993 96
1983 2047 1875 1980 96
1958 2052 2172 2116 96
2205 2055 1763 1983 96
2039 2053 1873 2068 97
1886 2055 2286 2039 97
2188 2069 2324 2101 97
2126 2057 1943 1999 97
1891 2039 1752 2009 98
2121 2064 2230 2060 98
2193 2086 2293 2097 98
1933 2059 2031 2082 98
2022 2049 1727 2012 99
2213 2059 2105 2034 99
1973 2074 2338 2070 99
1944 2067 2131 2078 99
2196 2051 1621 1990 99
2068 2052 1990 2049 100
1902 2058 2368 2072 100
2140 2077 2324 2090 100
2146 2067 2030 2043 100
1917 2042 1540 1957 101
2071 2049 2025 2022 101
2193 2073 2327 2106 101
1938 2067 2224 2116 101
1995 2048 1726 1984 102
2165 2054 1840 2084 102
2030 2071 2311 2062 102
1935 2070 2284 2102 102
2220 2070 2007 2035 103
2112 2026 1670 1950 103
1897 2065 2047 2055 103
2112 2067 2265 2080 103
2158 2062 2033 2043 104
1913 2051 1827 2023 104
2040 2054 2169 2045 104
2197 2068 2161 2082 104
1965 2067 2183 2075 105
1970 2060 1705 1973 105
2210 2063 1854 2041 105
2027 2078 2396 2151 105
1925 2063 2219 2100 105
2184 2059 1876 2016 106
2112 2043 1829 2058 106
1889 2059 2168 2048 106
2109 2069 2260 2099 106
2182 2064 1984 2022 107
1926 2040 1621 1986 107
2025 2053 2273 2094 107
2202 2065 2222 2065 107
1983 2067 2138 2081 107
1951 2045 2057 2040 108
2205 2058 2066 2071 108
2057 2056 2088 2034 108
1920 2041 1698 1961 108
2162 2055 1856 1962 109
2126 2066 2230 2127 109
1895 2068 2265 2100 109
2070 2028 1600 1929 109
2208 2061 1788 2003 109
1927 2067 2461 2138 110
2009 2091 2456 2126 110
2218 2058 2009 2036 110
1988 2024 1449 1968 110
1937 2052 1995 2075 110
2184 2081 2494 2150 111
2077 2090 2150 2102 111
1898 2043 1758 1983 111
2150 2054 2014 1986 111
2149 2067 2182 2075 111
1901 2047 2002 2038 112
2076 2039 1917 2022 112
2189 2074 2165 2104 112
1940 2065 2239 2067 112
2005 2066 1937 2035 113
2199 2022 1583 2020 113
2010 2075 2347 2075 113
1930 2066 2368 2106 113
2182 2073 2316 2096 113
2084 2006 1282 1860 114
1919 2068 2001 2077 114
2112 2060 2332 2125 114
2168 2086 2395 2149 114
1932 2059 1728 1976 115
2031 2012 1528 1934 115
2208 2092 2273 2078 115
1953 2081 2488 2149 115
1965 2061 2296 2100 115
2216 2040 1735 1983 116
2032 2026 1604 1957 116
1915 2071 2218 2077 116
2169 2077 2338 2120 116
2119 2079 2296 2090 117
1901 2054 1835 1993 117
2075 2009 1457 1951 117
2194 2074 2228 2112 117
1921 2043 2312 2085 117
2023 2074 2284 2084 118
2206 2040 1626 1981 118
1990 2049 1919 2002 118
1941 2063 2177 2037 118
2205 2081 2366 2114 118
2065 2047 1633 1926 118
1904 2030 1524 1954 119
2142 2065 2348 2070 119
2127 2099 2486 2188 119
1901 2063 2098 2048 119
2094 2050 1826 2038 119
2192 2070 2104 2048 119
1942 2107 2336 2150 120
2004 2070 2069 2027 120
2193 2019 1548 1927 120
2013 2075 2152 2109 120
1939 2074 2051 2058 120
2171 2051 2005 1995 120
2100 2067 1993 2051 121
1895 2057 2135 2050 121
2160 2092 2240 2133 121
2145 2004 1628 1917 121
1919 2040 1992 2004 121
2038 2080 2290 2105 121
2217 2111 2351 2150 122
1982 2076 1882 2026 122
1959 1993 1506 1906 122
2214 2080 2259 2079 122
2023 2078 2255 2052 122
1895 1988 1359 1819 122
2242 2081 1872 1999 122
2080 2082 2431 2123 123
1911 2139 2695 2234 123
2116 2080 2082 2024 123
2138 2010 1323 1893 123
1927 2079 2191 2051 123
2037 2096 2454 2192 123
2212 2096 2261 2150 123
1980 2060 1880 2036 123
1967 2064 1834 1983 124
2224 2082 1956 2042 124
2062 2077 2016 2022 124
1916 2062 2026 2021 124
2163 2087 2128 2060 124
2118 2079 1943 2042 124
1888 1998 1330 1864 124
2121 2097 2259 2120 124
2175 2103 2318 2133 124
1932 2118 2540 2151 125
2041 2070 1941 2014 125
2209 2066 1759 1968 125
1983 2079 2029 2055 125
1940 2085 2227 2092 125
2198 2080 2121 2068 125
2074 2073 1883 2018 125
1908 2061 2141 2060 125
2146 2050 1904 2012 125
2129 2023 1708 1935 125
1919 2094 2248 2114 125
2071 2078 2221 2096 125
2198 2090 2356 2133 125
1933 2048 2016 2034 125
2000 2052 1828 2003 125
2218 2057 2001 2067 125
2015 2066 2108 2075 125
1926 2051 2005 2036 125
2190 2049 2014 2053 125
2072 2037 1929 2039 125
1906 2050 1991 2040 125
2120 2045 2096 2029 125
2178 2072 2195 2095 125
1914 2054 2130 2069 125
2060 2052 2048 2082 125
2198 2044 1986 2043 125
1954 2063 2048 2016 125
1971 2039 1993 2050 124
2203 2038 2107 2055 124
2037 2037 2010 2048 124
1913 2039 1980 2053 124
2177 2042 2089 2063 124
2108 2036 2085 2052 124
1896 2026 2058 2026 124
2109 2027 1947 2029 124
2174 2046 1977 2077 124
1913 2046 2148 2049 123
2038 2017 1903 1969 123
2218 2082 2193 2132 123
1967 2058 2151 2073 123
1969 2077 2188 2104 123
2173 2035 2036 2000 122
2065 2064 1930 2025 122
1907 2054 1971 2071 122
2168 2067 2139 2048 122
2135 2057 2026 2049 122
1893 2050 2057 2029 122
2091 2066 2032 2043 121
2191 2062 2026 2041 121
1925 2050 2000 2035 121
2002 2049 2015 2049 121
2204 2044 1980 2047 121
1994 2044 2032 2045 120
1934 2050 2051 2043 120
2189 2049 1888 2011 120
2088 2071 2065 2094 120
1903 2070 2111 2054 120
2127 2058 2132 2034 119
2126 2050 2020 1978 119
1899 2055 1992 2044 119
2060 2068 2193 2108 118
2206 2074 2152 2087 118
1950 2069 2080 2080 118
1991 2056 1964 2025 117
2206 2064 2023 2030 117
2016 2063 2069 2060 117
1928 2056 2006 2042 116
2180 2050 1993 2040 116
2072 2053 1993 2031 116
1886 2056 2022 2037 115
2121 2049 2046 2042 115
2171 2056 2012 2025 115
1914 2047 1928 2009 114
2042 2050 2112 2092 114
2197 2065 2135 2082 114
1967 2063 2190 2074 113
1995 2062 1990 2009 113
2212 2050 1987 2041 113
2027 2044 2121 2087 112
1914 2042 2071 2047 112
2166 2054 2026 2054 111
2114 2051 1990 2043 111
1898 2045 1980 2041 111
2087 2060 2080 2059 110
2176 2057 2053 2044 110
1929 2053 2026 2031 110
2031 2044 2007 2053 109
2206 2056 2014 2056 109
1974 2059 2059 2066 108
1972 2050 2015 2032 108
2208 2056 2021 2026 108
2044 2048 1981 2037 107
1912 2048 2139 2072 107
2153 2049 2090 2076 106
2133 2059 2026 2062 106
1903 2057 1959 2063 105
2075 2045 2057 2064 105
2191 2064 2187 2076 105
1939 2051 2133 2049 104
2012 2052 2037 2047 104
2205 2054 1945 2042 103
1984 2056 2023 2042 103
1946 2049 2053 2059 103
2200 2066 2057 2063 102
2095 2058 2070 2066 102
1899 2052 2019 2037 102
2142 2053 1954 2026 101
2141 2059 1989 2048 101
1903 2051 2102 2066 100
2083 2060 2084 2064 100
2206 2063 2091 2062 100
1983 2055 1987 2024 99
1986 2049 1957 2044 99
2186 2057 2097 2055 98
2019 2072 2114 2078 98
1923 2053 2077 2056 98
2184 2057 1987 2051 97
2090 2048 1966 2023 97
1897 2046 2064 2032 97
2103 2056 2086 2030 96
2172 2061 2046 2062 96
1913 2052 2022 2064 96
2055 2057 2017 2042 95
2209 2063 2001 2042 95
1967 2056 1938 2036 95
1967 2061 2004 2052 94
2218 2068 2150 2074 94
2048 2076 2154 2093 94
1929 2058 2144 2064 94
2162 2056 2053 2047 93
2107 2057 2037 2036 93
1899 2056 2021 2041 93
2106 2060 2021 2048 92
2185 2056 2009 2055 92
1932 2053 1999 2046 92
2020 2052 2034 2032 91
2202 2059 2063 2050 91
1971 2056 2020 2047 91
1968 2055 2015 2057 91
2202 2060 2056 2074 90
2074 2062 2016 2052 90
1918 2049 1863 2009 90
2138 2056 2062 2054 89
2123 2068 2207 2112 89
1896 2060 2227 2090 89
2067 2059 2053 2047 88
2191 2063 1961 2016 88
1944 2050 2079 2055 88
2000 2054 2122 2065 87
2204 2056 2050 2053 87
2002 2058 2031 2042 87
1912 2057 2019 2044 86
2192 2062 2012 2049 86
2088 2062 2011 2049 86
1932 2061 2044 2048 85
2140 2056 2030 2048 85
2156 2059 2020 2046 85
1905 2048 2010 2053 84
2044 2054 2039 2060 84
2203 2060 1904 1992 84
1951 2048 1864 2011 83
1976 2060 2158 2075 83
2200 2066 2219 2139 83
2038 2070 2191 2104 82
1933 2056 2009 2047 82
2180 2063 2014 2020 81
2106 2063 2234 2092 81
1902 2054 2119 2051 81
2109 2048 1996 2034 80
2147 2053 2011 2040 80
1922 2056 2018 2039 80
2050 2058 2004 2041 79
2213 2059 2008 2042 79
1989 2060 2026 2051 79
1965 2057 2017 2054 79
2196 2065 2032 2056 78
2056 2068 2048 2065 78
1915 2054 2042 2046 78
2151 2055 1978 2045 77
2111 2054 1949 2038 77
1902 2056 2056 2052 77
2083 2054 2121 2058 77
2180 2062 2031 2045 76
1932 2080 1947 2008 76
2017 2060 2068 2052 75
2208 2063 2228 2092 75
2000 2080 2204 2092 75
1939 2054 2046 2064 74
2199 2061 1986 2040 74
2080 2065 2048 2055 74
1901 2061 2035 2066 73
2156 2064 2010 2056 73
2161 2063 2043 2061 73
1916 2061 2043 2047 72
2071 2054 2029 2044 72
2200 2066 2037 2048 72
1945 2054 2031 2033 71
1993 2059 2016 2032 71
2204 2056 1959 2031 70
2021 2060 2009 2060 70
1930 2055 2080 2057 70
2174 2060 2149 2053 69
2077 2056 2105 2065 69
1896 2053 1982 2023 68
2120 2058 2010 2057 68
2163 2058 2114 2050 67
1921 2062 2208 2071 67
2043 2060 2135 2071 66
2188 2056 2031 2045 66
1969 2053 1991 2030 65
1987 2052 2006 2043 65
2198 2048 1969 2043 65
2039 2048 1987 2051 64
1918 2040 2029 2055 64
2163 2048 2079 2054 63
2121 2061 1982 2035 63
1904 2059 1938 2040 62
2095 2055 2060 2068 62
2174 2060 2185 2076 61
1944 2062 2067 2044 61
2025 2050 1907 2009 61
2189 2054 1980 2043 60
1993 2070 2226 2110 60
1968 2063 2250 2097 59
2206 2068 2086 2058 59
2067 2059 1961 2041 58
1919 2057 1992 2048 58
2133 2058 2064 2057 57
2129 2060 2059 2047 57
1918 2054 2029 2037 57
2076 2058 1998 2031 56
2187 2063 2001 2051 56
1947 2067 1999 2053 55
2007 2060 2044 2049 55
2206 2060 2002 2035 55
1999 2058 1950 2041 54
1941 2052 2007 2037 54
2180 2058 2175 2082 53
2082 2061 2161 2054 53
1915 2048 2034 2020 53
2108 2057 2011 2051 52
2144 2060 2150 2103 52
1915 2056 2151 2082 51
2066 2053 2025 2044 51
2207 2059 1935 2036 51
1951 2056 2052 2046 50
1989 2058 2072 2052 50
2198 2066 2040 2040 49
2032 2065 1986 2042 49
1923 2059 1945 2043 49
2162 2061 2012 2062 49
2091 2060 2048 2055 48
1929 2058 2017 2043 48
2118 2054 1977 2049 48
2171 2060 2037 2065 47
1933 2061 2132 2059 47
2038 2062 2174 2057 47
2200 2061 2052 2038 46
1980 2061 1895 2037 46
1970 2055 1930 2054 46
2185 2059 2097 2060 45
2043 2056 2214 2061 45
1926 2056 2089 2050 45
2158 2065 2055 2049 45
2119 2060 2047 2065 44
1913 2057 2085 2052 44
2082 2052 2069 2054 44
2175 2067 2008 2052 43
1944 2062 2044 2052 43
2015 2056 2032 2047 43
2195 2061 2013 2045 43
2016 2064 2020 2059 42
1961 2060 2032 2050 42
2185 2056 2031 2053 42
2072 2066 2031 2050 42
1915 2068 2031 2041 42
2141 2060 2028 2056 41
2140 2060 2026 2058 41
1916 2056 1997 2038 41
2078 2070 2044 2047 41
2187 2064 2053 2047 41
1951 2051 1995 2045 40
1995 2059 1988 2049 40
2200 2061 2095 2075 40
2016 2054 2138 2044 39
1934 2052 2121 2054 39
2182 2056 2079 2048 39
2083 2060 2052 2044 39
1922 2053 2090 2063 38
2117 2052 2097 2058 38
2148 2054 2073 2066 38
1932 2050 2045 2048 38
2049 2052 2012 2054 37
2196 2066 2011 2050 37
1963 2058 2020 2047 37
1976 2058 2022 2058 37
2186 2057 2008 2051 37
2038 2060 2028 2055 36
1915 2055 2023 2037 36
2148 2052 1995 2035 36
2127 2076 2017 2059 36
1913 2057 2014 2046 36
2105 2062 2090 2056 35
2160 2065 2104 2065 35
1944 2069 2031 2046 35
2016 2046 1920 2030 35
2208 2080 2017 2071 35
1995 2062 2124 2070 34
1957 2051 2189 2050 34
2179 2054 2117 2034 34
2050 2061 2052 2039 34
1911 2048 2028 2038 34
2145 2065 2037 2054 33
2123 2080 2016 2049 33
1920 2062 2012 2049 33
2078 2057 2024 2031 33
2178 2068 2025 2053 33
1957 2064 2038 2046 32
2009 2053 2027 2050 32
2189 2063 2033 2051 32
2002 2058 2022 2051 32
1963 2071 2032 2065 32
2181 2068 2039 2061 31
2072 2061 2022 2052 31
1906 2040 2007 2034 31
2116 2050 1986 2044 31
2161 2079 2029 2062 31
1927 2054 2112 2054 30
2063 2054 2154 2048 30
2156 2046 2115 2024 30
1955 2048 2043 2034 30
1988 2061 1973 2047 29
2201 2065 2064 2066 29
2034 2060 2075 2056 29
1940 2059 2075 2043 29
2162 2057 2054 2052 28
2090 2058 2012 2048 28
1907 2048 1995 2033 28
2090 2047 1992 2032 28
2159 2071 1993 2065 27
1935 2060 2064 2067 27
2052 2058 2104 2061 27
2194 2073 2101 2063 27
1986 2068 2067 2049 26
1960 2050 2011 2046 26
2229 2081 2053 2081 26
2047 2061 2050 2054 26
1940 2063 2046 2055 26
2149 2060 2012 2044 25
2091 2038 1976 2025 25
1926 2071 1990 2053 25
2094 2064 2030 2043 25
2164 2060 2065 2049 24
1948 2065 2019 2052 24
2017 2052 2045 2061 24
2192 2067 2128 2053 24
2009 2066 2150 2053 24
1958 2055 2142 2045 23
2193 2064 2087 2061 23
2068 2060 2048 2058 23
1938 2069 2047 2056 23
2155 2076 2028 2060 23
2142 2068 2025 2060 22
1919 2053 2014 2053 22
2077 2057 2023 2053 22
2166 2046 2009 2048 22
1966 2065 2035 2056 22
1996 2064 2033 2041 22
2183 2048 2034 2029 22
2023 2079 2051 2053 22
1951 2053 2047 2046 22
2171 2056 2028 2029 22
2089 2070 2078 2080 21
1920 2052 2039 2041 21
2117 2076 2059 2073 21
2143 2054 2019 2015 21
1927 2053 2043 2047 21
2047 2059 2038 2059 21
2199 2066 2064 2094 21
1975 2057 2022 2044 21
1987 2058 2045 2060 21
2191 2060 2046 2060 21
2028 2056 2048 2063 21
1939 2062 2044 2042 21
2167 2064 2063 2067 21
2103 2072 2059 2062 20
1935 2056 2050 2054 20
2112 2070 2042 2050 20
2142 2046 2031 2041 20
1942 2064 2044 2050 20
2037 2058 2045 2058 20
2191 2057 2046 2055 20
1980 2052 2040 2045 20
1968 2050 2034 2040 20
2159 2028 2023 2026 20
2042 2044 2034 2043 19
1930 2054 2045 2037 19
2153 2065 2056 2051 19
2122 2065 2039 2058 19
1924 2068 2040 2052 19
2074 2057 2036 2038 19
2166 2059 2048 2048 19
1949 2062 2036 2050 19
1996 2041 2023 2039 18
2174 2052 2032 2042 18
2013 2066 2050 2052 18
1919 2031 2023 2026 18
2203 2075 2061 2064 18
2071 2056 2045 2048 18
1925 2065 2052 2057 18
2131 2056 2050 2049 17
2118 2042 2037 2041 17
1904 2055 2048 2048 17
2062 2053 2042 2049 17
2180 2058 2046 2050 17
1935 2045 2037 2040 17
2004 2052 2048 2056 17
2184 2056 2036 2044 17
2020 2061 2045 2054 17
1932 2043 2045 2055 17
2165 2056 2029 2045 17
2088 2062 2064 2071 16
1919 2050 2025 2041 16
2090 2032 2024 2036 16
2146 2056 2038 2053 16
1927 2058 2053 2049 16
2042 2050 2039 2040 16
2160 2041 2032 2038 16
1977 2067 2053 2061 16
1978 2059 2041 2047 16
2205 2071 2056 2063 16
2047 2059 2051 2052 16
1934 2057 2047 2051 16
2155 2060 2041 2049 16
2094 2045 2031 2044 16
1913 2061 2043 2050 16
2088 2061 2040 2049 15
2170 2072 2052 2058 15
1938 2051 2035 2041 15
2035 2063 2047 2038 15
2183 2058 2069 2076 15
1994 2061 2049 2049 15
1978 2061 2047 2066 15
2197 2072 2052 2062 15
2041 2050 2048 2034 15
1927 2060 2020 2047 15
2133 2056 2043 2068 15
2137 2069 2020 2038 15
1924 2056 2051 2070 15
2063 2059 2037 2043 15
2168 2053 2047 2046 15
1956 2063 2042 2042 14
1978 2038 2027 2024 14
2208 2063 2057 2058 14
2014 2061 2046 2046 14
1941 2054 2036 2042 14
2163 2048 2050 2062 14
2063 2038 2026 2040 14
1909 2047 2033 2040 13
2127 2058 2044 2038 13
2148 2059 2055 2059 13
1905 2048 2025 2006 13
2067 2061 2089 2105 13
2180 2048 2007 1965 13
1981 2074 2111 2097 12
1985 2053 2084 2039 12
2206 2078 2072 2084 12
2044 2057 1994 2078 12
1955 2079 2052 2105 12
2178 2069 2013 2079 11
2102 2065 2073 2073 11
1917 2062 2065 2076 11
2126 2069 2060 2065 11
2173 2074 2072 2062 10
1924 2056 2060 2051 10
2030 2048 2041 2032 9
2203 2061 2044 2037 9
1972 2053 2039 2035 9
1945 2036 2015 2019 8
2205 2056 2042 2045 8
2033 2054 2048 2044 7
1925 2056 2044 2049 7
2164 2052 2042 2048 6
2114 2060 2042 2059 6
1926 2073 2056 2064 6
2086 2051 2053 2038 5
2161 2045 2029 2031 5
1932 2047 2026 2030 5
2014 2042 2030 2040 4
2206 2053 2045 2053 4
1980 2037 2029 2019 4
1958 2059 2042 2060 4
2170 2048 2048 2054 4
2099 2087 2088 2078 4
1958 2089 2055 2048 4
2185 2112 2096 2095 4
2185 2108 2084 2112 4
1952 2082 2064 2061 4
2086 2070 2057 2039 4
2182 2058 2037 2068 4
1926 2030 2012 2043 4
1975 2016 2000 2027 4
2154 2005 1973 1982 4
1996 2036 2012 2024 4
1913 2030 2009 2017 4
2152 2031 2007 2023 4
2061 2045 2040 2025 4
1921 2070 2041 2050 4
2115 2052 2030 2041 4
2148 2061 2040 2047 4
1906 2048 2033 2040 4
2037 2039 2029 2030 4
2183 2056 2041 2046 4
1964 2058 2034 2041 4
1983 2052 2039 2040 4
2166 2031 2040 2033 4
2032 2063 2057 2069 4
1927 2054 2026 2039 4
2161 2048 2042 2047 4
2116 2054 2076 2049 4
1904 2052 2008 2009 4
2098 2052 2041 2031 4
2183 2076 2054 2099 4
1929 2068 2055 2072 4
2039 2066 2049 2050 4
2216 2074 2041 2063 4
1985 2057 2053 2072 4
1974 2080 2060 2066 4
2208 2070 2054 2061 3
2061 2060 2051 2047 3
1912 2043 2025 2033 3
2159 2055 1989 2048 3
2128 2067 1998 2046 3
1922 2069 1996 2067 3
2092 2061 2056 2077 3
2177 2057 2137 2068 3
1931 2053 2159 2043 3
2015 2054 2123 2036 3
2176 2051 2025 2032 3
1995 2061 1991 2056 3
1935 2051 1992 2034 3
2176 2052 1998 2031 3
2070 2057 2032 2062 3
1921 2066 2058 2072 3
2136 2052 2045 2043 3
2138 2055 1958 2031 3
1923 2070 1981 2051 4
2068 2062 2066 2074 4
2196 2080 2141 2059 4
1973 2065 2136 2052 4
1994 2060 2082 2045 4
2208 2066 2063 2053 4
2036 2063 2112 2070 4
1929 2049 2048 2034 4
2180 2063 2010 2039 4
2097 2054 1972 2031 4
1919 2062 2021 2057 5
2091 2053 2065 2074 5
2164 2068 1985 2052 5
1929 2062 1898 2049 5
2050 2066 1997 2065 6
2197 2067 2169 2087 6
1978 2069 2209 2064 6
1977 2062 2051 2029 7
2200 2057 1978 2021 7
2042 2058 2061 2053 7
1916 2044 2149 2057 8
2154 2057 2133 2082 8
2103 2052 1973 2029 9
1926 2070 1930 2042 9
2112 2080 1940 2055 9
2188 2079 2133 2080 10
1953 2070 2188 2078 10
2043 2076 2096 2043 11
2239 2092 1931 2063 11
2023 2090 1909 2086 12
1983 2081 2025 2069 12
2209 2072 1986 2043 12
2056 2057 1934 1993 13
1905 2052 1915 2039 13
2118 2037 2268 2094 14
2083 2023 2384 2095 14
1859 2008 2261 2026 15
2016 2002 2046 1990 15
2136 2019 1921 1989 16
1924 2035 1957 2018 16
2001 2051 1952 2027 17
2206 2061 1921 2030 17
2025 2069 2001 2061 18
1959 2069 1930 2051 18
2192 2069 1840 2029 19
2091 2068 1885 2060 20
1919 2052 2117 2064 20
2122 2049 2323 2091 21
2144 2058 2202 2033 21
1918 2060 1999 2050 22
2053 2054 1927 2042 22
2181 2060 2015 2074 23
1963 2049 2095 2076 24
1982 2060 2132 2062 24
2191 2070 2067 2061 25
2049 2075 1940 2040 25
1936 2055 1919 2061 26
2182 2071 2080 2075 26
2118 2068 2245 2080 27
1922 2067 2165 2053 27
2080 2049 1900 2010 28
2169 2053 1834 2028 28
1943 2055 2024 2054 29
2048 2050 2173 2073 29
2223 2054 2075 2061 30
1985 2045 1830 1975 30
1944 2037 1855 2005 31
2173 2045 2166 2056 31
2034 2049 2422 2131 32
1907 2063 2223 2087 32
2135 2064 1980 2043 33
2114 2062 1942 2051 33
1930 2057 2033 2032 34
2081 2065 2102 2063 34
2176 2073 1980 2041 35
1964 2070 1934 2055 35
2019 2074 1903 2028 36
2202 2071 1963 2049 36
2011 2058 2089 2055 37
1955 2059 2160 2073 37
2159 2064 2136 2075 38
2058 2058 2070 2058 38
1922 2053 2025 2037 39
2129 2045 2045 2034 39
2132 2068 2064 2056 40
1928 2064 2126 2067 40
2055 2080 2025 2045 41
2184 2067 1921 2029 41
1951 2045 1970 2023 42
1987 2058 2071 2020 42
2186 2062 2089 2054 43
2007 2051 1967 2014 44
1921 2050 1978 2061 44
2154 2057 2166 2054 45
2093 2064 2229 2096 45
1913 2062 2105 2078 46
2129 2053 1968 2053 46
2162 2073 1970 2038 47
1926 2063 1991 2028 47
2062 2064 1991 2028 48
2203 2080 2043 2069 48
1964 2055 2157 2055 49
1967 2055 2119 2062 49
2193 2057 1999 2018 50
2039 2062 1884 1993 50
1920 2058 2019 2033 51
2151 2061 2154 2109 51
2104 2062 1926 2022 52
1907 2047 1914 2029 52
2099 2056 2036 2007 53
2178 2068 2219 2095 53
1910 2076 2114 2101 54
2024 2055 2034 2067 54
2224 2073 2086 2089 55
1998 2058 2093 2038 55
1964 2056 2089 2045 56
2196 2062 2109 2065 56
2048 2064 2086 2061 57
1926 2051 1919 2028 57
2149 2064 1854 2050 58
2119 2057 2037 2064 58
1891 2051 1942 1984 59
2092 2039 1876 1964 59
2182 2059 1963 2011 60
1942 2055 2324 2124 60
2005 2071 2290 2161 60
2211 2062 1993 2071 61
2021 2071 1851 2033 61
1947 2064 2032 2054 62
2189 2070 2294 2091 62
2083 2070 2114 2074 63
1909 2050 1925 2019 63
2136 2049 1924 2048 64
2142 2053 2192 2073 64
1899 2054 2158 2043 65
2048 2040 1915 1985 65
2177 2045 1710 1975 65
1959 2062 2012 2058 66
1970 2064 2209 2121 66
2206 2057 2040 2055 67
2028 2044 1857 1985 67
1917 2057 2104 2046 68
2181 2063 2306 2107 68
2092 2075 2199 2081 68
1901 2063 1888 2038 69
2113 2050 1899 2025 69
2167 2051 2066 2061 70
1915 2063 2187 2095 70
2035 2054 1965 2012 70
2185 2054 1948 2037 71
1974 2067 2040 2049 71
1995 2063 2141 2054 72
2197 2065 2125 2081 72
2066 2063 2050 2068 72
1926 2043 1822 1962 73
2143 2051 1944 2047 73
2127 2069 2244 2050 74
1929 2063 2261 2111 74
2104 2065 2038 2069 74
2179 2061 1847 2038 75
1931 2055 1782 1988 75
2020 2046 2125 2103 75
2198 2061 2240 2034 76
1999 2067 2294 2090 76
1961 2063 1947 2015 76
2177 2064 1895 2047 77
2066 2056 2063 2076 77
1914 2054 2154 2063 77
2115 2069 2227 2066 78
2162 2060 1894 2014 78
1914 2056 1781 2019 78
2088 2053 2155 2074 79
2186 2074 2173 2097 79
1954 2055 2109 2056 79
2012 2049 1797 1981 80
2204 2063 1901 2030 80
2004 2074 2315 2114 80
1933 2064 2146 2072 80
2161 2050 1937 2075 81
2084 2057 1994 2017 81
1907 2054 2268 2122 81
2128 2052 2077 2034 82
2157 2047 1787 2033 82
1911 2048 1925 1998 82
2041 2057 2228 2088 82
2188 2074 2249 2075 83
1979 2054 1888 2001 83
1972 2044 1678 1992 83
2211 2044 2103 2043 84
2034 2064 2245 2059 84
1928 2069 2350 2138 84
2186 2071 2067 2063 84
2122 2068 1778 2001 85
1912 2043 1891 2050 85
2108 2056 2253 2059 85
2174 2072 2145 2073 86
1918 2056 1922 2030 86
2011 2042 1827 2034 86
2201 2058 2117 2012 86
1975 2054 2222 2059 87
1959 2059 2158 2053 87
2199 2054 1801 2005 87
2059 2069 1983 2065 87
1914 2067 2198 2079 88
2164 2079 2207 2108 88
2134 2063 1845 1993 88
1873 2048 1676 2020 88
2123 2050 2237 2061 89
2183 2077 2212 2095 89
1959 2072 2284 2107 89
2016 2050 1827 1996 89
2194 2065 1964 2088 89
1987 2071 2294 2087 90
1945 2061 2214 2082 90
2191 2056 2083 2051 90
2047 2072 1746 2006 91
1858 2039 1930 2046 91
2197 2048 2035 2059 91
2149 2058 2228 2047 91
1937 2068 2117 2055 91
2082 2064 1873 2030 92
2147 2050 1847 2051 92
1952 2056 2088 2035 92
1997 2050 2205 2096 92
2218 2072 2222 2053 93
2006 2056 1768 1983 93
1909 2035 1652 2029 93
2179 2070 2311 2085 93
2116 2078 2416 2118 93
1918 2098 2393 2150 94
2140 2062 1922 2053 94
2154 2052 1754 2012 94
1908 2052 2005 2035 94
2049 2050 2183 2054 94
2211 2057 2049 2051 94
1973 2055 2001 2009 95
1960 2051 1870 2050 95
2192 2060 2024 2041 95
2042 2053 2093 2072 95
1916 2050 2124 2047 95
2169 2054 2000 2041 96
2105 2052 1798 1999 96
1879 2049 1912 2035 96
2120 2064 2261 2064 96
2161 2068 2189 2083 96
1933 2059 2089 2049 96
2039 2048 1802 2007 96
2200 2050 1933 2009 96
1960 2072 2192 2091 97
1963 2067 2305 2105 97
2202 2069 2130 2088 97
2068 2070 1939 2037 97
1920 2049 1767 1982 97
2145 2057 1991 2061 97
2128 2070 2278 2066 97
1900 2058 2236 2061 97
2080 2060 2060 2061 97
2192 2056 1873 2046 97
1921 2041 1896 2029 97
2014 2049 1946 1997 97
2201 2063 2099 2076 97
2007 2071 2119 2065 97
1965 2043 1904 2012 97
2195 2055 1646 2042 97
2062 2066 2349 2081 97
1903 2070 2338 2075 97
2129 2075 2333 2079 97
2150 2057 1837 2031 98
1897 2052 1887 2045 98
2064 2058 2152 2088 98
2198 2069 2159 2063 98
1957 2064 2000 2034 98
1986 2051 1879 2025 98
2210 2058 2026 2027 98
2014 2052 2050 2060 98
1921 2048 2101 2034 98
2204 2062 1855 2008 98
2072 2054 1744 2059 98
1900 2055 2248 2026 98
2108 2054 2151 2027 98
2199 2076 2260 2048 98
1910 2053 1852 2017 98
2053 2066 2043 2087 98
2216 2058 2137 2078 98
1957 2060 2058 2052 99
1959 2053 2004 2036 99
2221 2052 1860 2018 99
2031 2040 1906 2049 99
1896 2061 2173 2018 99
2173 2067 2127 2084 99
2121 2075 2227 2057 99
1886 2036 1747 1939 99
2090 2056 1865 2015 99
2178 2065 2286 2124 99
1935 2076 2214 2116 99
2032 2063 1956 2057 99
2182 2034 1817 2043 99
1984 2078 2246 2053 99
1970 2065 2210 2082 99
2225 2081 2199 2052 99
2102 2080 1946 2048 100
1906 2056 1813 2050 100
2139 2071 2037 2049 100
2140 2063 2105 2062 100
1916 2058 2078 2032 100
2075 2055 1929 2012 100
2175 2045 1854 2017 100
1923 2053 2067 2012 100
1999 2049 2054 2067 101
2188 2046 2060 2075 101
1981 2041 1937 2084 101
1928 2060 2335 2004 101
2186 2070 2233 2104 101
2097 2071 2166 2059 101
1908 2048 1833 2031 101
2132 2046 1897 2032 102
2159 2054 1991 2036 102
1900 2058 2126 2066 102
2057 2060 2083 2079 102
2204 2058 2004 2043 102
1964 2055 1794 2025 102
1961 2050 2182 2029 102
2207 2073 2168 2089 103
2038 2066 2145 2035 103
1914 2041 1764 2003 103
2154 2056 2000 2058 103
2146 2076 2272 2084 103
1892 2075 2287 2113 104
2136 2068 1984 2052 104
2201 2054 1754 2019 104
1903 2050 1963 2033 104
2021 2065 2201 2080 104
2214 2062 2160 2067 105
1976 2073 2115 2060 105
1955 2056 1869 2014 105
2206 2064 1727 2048 105
2051 2066 2062 2061 105
1898 2066 2196 2017 106
2165 2079 2282 2108 106
2132 2056 1965 2013 106
1881 2038 1889 2117 106
2083 2054 2173 2049 106
2202 2076 2231 2062 107
1917 2060 2177 2058 107
2017 2054 1864 2006 107
2219 2040 1742 1999 107
2000 2069 2146 2089 107
1938 2052 2162 2035 107
2206 2070 2262 2115 108
2073 2060 1982 2032 108
1897 2045 1688 2019 108
2157 2058 2151 2072 108
2150 2069 2095 2009 108
1889 2062 2173 2056 109
2076 2055 1884 2020 109
2205 2042 1674 2018 109
1941 2055 2228 2035 109
1990 2071 2236 2091 109
2223 2078 2224 2098 110
2013 2062 2071 2101 110
1919 2034 1722 2004 110
2189 2050 1989 2077 110
2089 2074 2199 2028 110
1893 2061 2141 2054 110
2120 2056 2143 2053 110
2171 2045 1730 2004 111
1910 2059 1899 2041 111
2047 2070 2277 2048 111
2221 2079 2307 2098 111
1970 2073 2037 2022 111
1955 2039 1712 2028 112
2207 2063 2127 2056 112
2026 2059 2096 2053 112
1899 2063 2207 2078 112
2187 2076 1917 2006 112
2119 2050 1890 2024 112
1887 2053 2052 2079 113
2102 2062 2157 2076 113
2181 2066 2179 2096 113
1920 2065 2047 2055 113
2026 2037 1618 1947 113
2216 2048 2046 2061 113
1973 2073 2278 2105 114
1942 2062 2295 2069 114
2220 2080 2059 2048 114
2061 2034 1728 1996 114
1899 2044 2067 2080 114
2159 2078 2273 2088 114
2135 2073 2062 2096 115
1903 2064 2082 2029 115
2089 2041 1735 1996 115
2192 2040 2024 2094 115
1925 2068 2207 2097 115
2016 2058 2208 2037 115
2222 2066 2130 2045 116
2002 2026 1586 1920 116
1942 2057 1922 2052 116
2188 2063 2280 2124 116
2080 2085 2340 2122 116
1880 2072 2081 2064 116
2149 2037 1792 1998 117
2157 2058 1985 2062 117
1899 2058 2249 2075 117
2064 2056 2070 2031 117
2213 2064 2065 2032 117
1927 2058 1799 2029 117
1981 2024 1750 1996 118
2211 2060 2281 2097 118
2002 2069 2188 2058 118
1931 2072 2196 2064 118
2193 2062 1889 2063 118
2100 2055 1994 2023 118
1892 2061 2122 2087 118
2116 2048 1755 1946 118
2182 2035 1804 2050 118
1917 2094 2411 2097 119
2048 2087 2404 2107 119
2239 2063 1996 1962 119
1954 2055 1845 2042 119
1964 2064 2143 2173 119
2212 2077 2263 2161 119
2039 2048 1964 2047 119
1890 2012 1750 1964 119
2164 2058 2218 2100 120
2110 2071 2178 2082 120
1883 2059 2054 2060 120
2091 2028 1816 1983 120
2181 2056 1919 2037 120
1910 2061 2191 2062 120
2016 2060 2094 2044 120
2214 2028 1985 2032 120
1996 2052 1792 1984 121
1951 2034 1808 1930 121
2184 2072 2170 2100 121
2068 2097 2432 2159 121
1897 2065 2107 2094 121
2143 2051 1914 1984 121
2146 2060 2061 2092 121
1879 2044 2120 2107 121
2075 2084 2262 2113 121
2204 2069 2026 2011 122
1936 2059 1863 2022 122
1990 2064 2065 2070 122
2222 2069 2055 2047 122
1984 2049 1981 2002 122
1947 2067 2006 2071 122
2200 2085 2028 2059 122
2093 2072 2001 2059 122
1894 2055 2061 2029 122
2125 2058 1991 2033 122
2159 2053 2072 2050 123
1917 2067 1988 2039 123
2048 2046 2003 2058 123
2206 2070 2145 2069 123
1941 2036 2078 2029 123
1968 2056 2085 2041 123
2223 2072 1988 2039 123
2031 2057 1966 2076 123
1906 2059 2125 2038 123
2190 2065 2105 2063 123
2118 2080 2075 2068 123
1901 2059 2060 2049 123
2122 2051 2034 2064 122
2186 2060 2088 2063 122
1906 2054 2050 2053 122
2031 2048 2046 2038 122
2215 2046 2004 2025 122
1963 2053 2039 2053 122
1956 2048 2045 2067 122
2210 2058 2048 2064 122
2046 2066 2062 2049 122
1900 2060 1995 2032 122
2168 2048 2001 2052 121
2132 2045 2083 2033 121
1876 2059 2046 2055 121
2096 2051 1949 2027 121
2202 2057 2005 2088 120
1919 2066 2142 2039 120
2004 2046 2132 2065 120
2219 2062 2121 2051 120
1992 2051 2020 2039 119
1928 2037 2007 2056 119
2200 2065 2034 2050 119
2064 2062 2038 2052 118
1887 2042 2013 2021 118
2142 2069 2059 2039 117
2142 2065 2050 2037 117
1893 2071 2024 2064 117
2070 2062 1999 2046 116
2201 2062 2017 2048 116
1933 2063 2017 2023 115
1979 2058 2080 2046 115
2218 2067 2040 2052 115
2011 2069 2117 2065 114
1913 2057 2046 2036 114
2191 2057 2064 2047 113
2093 2052 2034 2047 113
1894 2055 1999 2047 112
2129 2058 1994 2046 112
2167 2060 2079 2045 111
1908 2052 2106 2052 110
2042 2051 2025 2045 110
2223 2045 1965 2050 109
1965 2056 1947 2030 109
1965 2055 2111 2031 108
2219 2069 2191 2101 108
2047 2066 2116 2074 107
1911 2052 2054 2037 107
2185 2059 2023 2062 106
2122 2054 2013 2048 105
1892 2049 2054 2068 105
2110 2047 2015 2053 104
2188 2068 2048 2064 104
1911 2056 2049 2049 103
2034 2060 2032 2060 103
2225 2053 2025 2042 102
1959 2048 1960 2042 102
1943 2043 1966 2041 101
2208 2048 2037 2052 101
2086 2044 2123 2064 100
1911 2037 2140 2056 99
2168 2044 2058 2050 99
2122 2055 2022 2052 98
1856 2042 2036 2038 98
2079 2045 2061 2036 97
2198 2061 2072 2071 97
1912 2055 2049 2056 96
1998 2058 2026 2044 95
2233 2064 2026 2050 95
2004 2071 2040 2051 94
1932 2063 2031 2041 94
2224 2061 2021 2057 93
2093 2068 2007 2042 93
1887 2052 1994 2059 92
2139 2063 2072 2064 92
2164 2059 2019 2037 91
1902 2061 1984 2015 91
2070 2054 2008 2030 91
2204 2057 2052 2092 90
1931 2053 2198 2083 90
1964 2050 2134 2077 89
2212 2046 2066 2032 89
2020 2052 2031 2023 88
1909 2045 2020 2043 88
2189 2051 2025 2044 87
2098 2053 2032 2043 87
1878 2052 1983 2032 86
2112 2045 1981 2051 86
2160 2055 2044 2068 86
1923 2049 2075 2043 85
2055 2055 2026 2030 85
2224 2052 1978 2048 84
1981 2050 2017 2053 84
1962 2057 2122 2057 84
2216 2059 2016 2031 83
2046 2064 2047 2063 83
1916 2059 2000 2050 83
2164 2059 2110 2081 82
2120 2058 2093 2042 82
1897 2063 2040 2040 81
2108 2059 2050 2036 81
2189 2066 2086 2065 81
1917 2063 2055 2073 80
2023 2066 2070 2077 80
2210 2067 2071 2069 79
1986 2062 2060 2054 79
1956 2048 2022 2016 79
2198 2057 2000 2041 78
2057 2057 2050 2080 78
1914 2055 2037 2049 77
2148 2056 2015 2036 77
2149 2062 1984 2031 77
1906 2055 1948 2049 76
2060 2052 2041 2049 76
2198 2061 2150 2073 75
1944 2062 2101 2035 75
2012 2049 2034 2040 75
2213 2056 1991 2047 74
2003 2067 2141 2082 74
1939 2056 2120 2057 73
2191 2060 2044 2051 73
2096 2064 1990 2018 72
1900 2063 2054 2074 72
2135 2052 2093 2060 71
2158 2051 2049 2066 71
1912 2051 2028 2042 70
2054 2044 1954 2011 70
2211 2056 1976 2057 70
1961 2055 2035 2066 69
1969 2051 2105 2095 69
2208 2064 2151 2061 68
2032 2066 2047 2032 68
1926 2060 1963 2015 67
2172 2062 1980 2028 67
2098 2079 2086 2050 66
1904 2061 2157 2069 65
2110 2064 2126 2048 65
2151 2063 1969 2034 64
1925 2062 1980 2030 64
2064 2070 2067 2087 63
2242 2059 2108 2082 63
2006 2061 2094 2068 62
1957 2053 2036 2042 62
2191 2078 1988 2030 61
2044 2056 1995 2055 61
1919 2057 1989 2012 60
2141 2058 2093 2066 60
2125 2054 2048 2040 60
1915 2045 1945 2019 59
2080 2034 1941 2039 58
2174 2043 2027 2031 58
1918 2052 2205 2099 57
2003 2058 2205 2079 57
2201 2059 2118 2092 57
1994 2061 1996 2040 56
1942 2055 1938 2047 55
2192 2064 2001 2041 55
2062 2052 2055 2039 54
1913 2053 2151 2050 54
2133 2061 2112 2039 54
2157 2068 2042 2042 53
1913 2063 2004 2041 53
2060 2070 1994 2053 52
2194 2062 1977 2066 52
1970 2068 2006 2063 52
2018 2071 1960 2044 51
2219 2064 1890 2000 51
2023 2066 1922 2048 50
1929 2056 2196 2091 50
2173 2070 2349 2133 49
2095 2064 2249 2070 49
1903 2054 2085 2032 49
2107 2049 1976 2026 48
2147 2052 1999 2026 48
1914 2047 2003 2025 47
2034 2054 1970 2027 47
2188 2055 2018 2042 47
1966 2057 2028 2026 46
1967 2052 1981 2018 46
2172 2046 1916 2055 46
2032 2049 2043 2067 45
1923 2040 2067 2061 45
2153 2053 2079 2046 45
2114 2063 2018 2036 45
1917 2062 1997 2053 44
2098 2060 2050 2065 44
2167 2060 2132 2036 44
1946 2058 2109 2048 43
2025 2061 2080 2058 43
2200 2069 2041 2061 43
2005 2075 2020 2061 42
1980 2078 2029 2058 42
2194 2080 1879 2026 42
2066 2068 1886 2056 41
1922 2061 2008 2038 41
2130 2059 2275 2093 41
2126 2061 2305 2073 40
1926 2063 2142 2032 40
2072 2057 1992 2036 40
2169 2062 1945 2049 39
1953 2050 1999 2057 39
2001 2050 2029 2034 39
2197 2057 2066 2052 38
2019 2057 2052 2031 38
1950 2053 1969 2034 38
2174 2060 1957 2072 37
2100 2078 2058 2082 37
1919 2065 2095 2074 37
2138 2069 2074 2061 37
2159 2073 2041 2048 36
1944 2072 1996 2073 36
2078 2089 2055 2079 36
2217 2093 2148 2090 35
1990 2087 2143 2082 35
1988 2080 2092 2043 35
2191 2061 2024 2035 35
2030 2061 1933 2042 34
1914 2037 1991 2027 34
2140 2043 2064 2046 34
2065 2029 2102 2021 33
1885 2025 2043 2008 33
2061 2014 1940 1988 33
2126 2027 1957 2013 32
1898 2026 2023 2031 32
2018 2039 2039 2050 32
2200 2058 2065 2061 31
1969 2049 2033 2040 31
1959 2049 2003 2047 31
2184 2056 1989 2038 30
2050 2054 1997 2060 30
1933 2054 2092 2056 30
2149 2054 2116 2057 29
2097 2041 2087 2034 29
1937 2070 2075 2056 29
2084 2059 2009 2047 28
2175 2055 2028 2053 28
1948 2052 2032 2051 28
2031 2078 2040 2061 27
2213 2078 2039 2075 27
2006 2083 2039 2087 27
1969 2071 2035 2064 26
2208 2066 2092 2060 26
2086 2073 2088 2039 26
1941 2072 2077 2056 25
2141 2066 2047 2057 25
2144 2069 2025 2060 25
1910 2057 2030 2026 24
2083 2067 2015 2039 24
2178 2072 1959 2053 24
1960 2058 1979 2059 23
1994 2044 2058 2065 23
2175 2043 2130 2035 22
2032 2078 2137 2053 22
1943 2059 2050 2035 22
2183 2064 2016 2065 21
2097 2070 2071 2074 21
1934 2082 2103 2057 21
2114 2068 2065 2049 20
2156 2069 2050 2075 20
1925 2049 2024 2048 20
2041 2062 2051 2063 20
2191 2059 2040 2054 19
1969 2056 2037 2056 19
1972 2044 2023 2049 19
2164 2033 2014 2035 18
2020 2057 2034 2045 18
1932 2036 2025 2034 18
2146 2016 2016 2016 18
2113 2054 2036 2040 17
1930 2060 2035 2049 17
2074 2050 2036 2056 17
2130 2043 2031 2031 17
1932 2051 2038 2039 17
2029 2067 2056 2049 16
2190 2074 2054 2063 16
2004 2071 2049 2053 16
1967 2065 2057 2056 16
2172 2062 2057 2056 16
2052 2061 2035 2051 15
1937 2062 2041 2056 15
2135 2060 2037 2062 15
2127 2071 2054 2059 15
1930 2056 2045 2030 15
2057 2048 2037 2038 15
2170 2062 2045 2076 15
1965 2076 2051 2069 14
2009 2056 2047 2069 14
2196 2061 2043 2034 14
2019 2068 2058 2041 14
1944 2052 2036 2047 14
2180 2061 2059 2071 14
2091 2066 2040 2067 14
1924 2053 2031 2038 14
2124 2062 2062 2067 13
2121 2045 2029 2027 13
1936 2055 2047 2063 13
2042 2044 2043 2047 13
2177 2052 2031 2035 13
1967 2052 2047 2044 13
1979 2051 2046 2041 13
2169 2041 2027 2024 13
2012 2034 2038 2056 13
1951 2064 2041 2050 13
2174 2057 2042 2049 13
2100 2074 2046 2068 13
1924 2057 2009 2017 13
2104 2061 2062 2094 12
2161 2074 2058 2066 12
1937 2065 2041 2069 12
2036 2053 2032 2028 12
2187 2065 2049 2062 12
1963 2052 2048 2049 12
1970 2048 2032 2029 12
2194 2065 2054 2050 12
2045 2061 2050 2053 12
1920 2053 2037 2035 12
2152 2065 2019 2036 12
2106 2061 2032 2052 12
1929 2060 2037 2040 12
2090 2048 2008 2011 12
2183 2073 2070 2088 11
1932 2048 2045 2038 11
2019 2052 2037 2047 11
2202 2073 2062 2055 11
1994 2059 2031 2075 11
1937 2049 2018 2030 11
2177 2057 2029 2038 10
2070 2074 2058 2054 10
1914 2053 2032 2009 10
2159 2075 2068 2104 10
2121 2053 2013 2029 10
1908 2047 2034 2049 9
2069 2048 2029 2034 9
2176 2050 2038 2050 9
1968 2056 2057 2082 9
2002 2047 2035 2052 9
2194 2055 2042 2051 8
1985 2038 2035 2032 8
1954 2060 2056 2053 8
2171 2053 2057 2054 8
2094 2066 2068 2052 8
1937 2071 2042 2039 7
2121 2066 2053 2053 7
2134 2065 2019 2033 7
1955 2084 2082 2071 7
2061 2059 2039 2052 7
2184 2072 2050 2067 7
1975 2060 2035 2048 7
1987 2057 2072 2099 6
2177 2069 2068 2076 6
2035 2056 2042 2041 6
1928 2053 2040 2058 6
2169 2068 2044 2079 6
2084 2040 2036 2051 6
1918 2061 2047 2052 6
2104 2055 2048 2043 5
2184 2087 2072 2074 5
1939 2060 2043 2038 5
2036 2079 2035 2016 5
2208 2084 2097 2084 5
1971 2052 2041 2048 5
1964 2048 2045 2045 5
2179 2050 2030 2043 4
2044 2056 2070 2079 4
1926 2054 2036 2063 4
2140 2056 2041 2056 4
2128 2068 2043 2032 4
1908 2049 2031 2039 4
2089 2052 2027 2049 4
2164 2050 2033 2048 4
1958 2062 2036 2041 4
2000 2057 2068 2057 4
2218 2089 2058 2047 4
2012 2080 2035 2111 3
1973 2074 2037 2067 3
2175 2063 2014 2027 3
2081 2064 2047 2047 3
1907 2053 2050 2032 3
2133 2060 2042 2079 3
2130 2049 2030 2054 3
1913 2049 2047 2041 3
2073 2061 2049 2050 3
2180 2071 2048 2052 2
1968 2074 2044 2043 2
1996 2056 2066 2071 2
2216 2081 2032 2045 2
2040 2064 2044 2065 2
1954 2066 2081 2074 2
2163 2050 2017 2014 2
2089 2058 2075 2088 2
1916 2063 2070 2070 1
2156 2102 2030 2006 1
2158 2073 2053 2071 1
1949 2098 2052 2061 1
2038 2048 2010 2038 1
2188 2047 2031 2030 1
1974 2063 2093 2125 1
1967 2062 2046 2070 1
2203 2052 2038 2085 1
2032 2050 2042 2045 1
1899 2032 2031 2031 1
2150 2049 2048 2048 1
2126 2065 2063 2050 0
1901 2045 2051 2036 0
2097 2062 2045 2038 0
2173 2055 2049 2044 0
1940 2060 2052 2044 0
2027 2063 2053 2041 0
2210 2065 2050 2057 0
1999 2063 2042 2058 0
1956 2056 2040 2053 0
2197 2060 2051 2049 0
2075 2072 2061 2052 0
1898 2037 2021 2046 0
2173 2083 2056 2066 0
2117 2047 2023 2035 0
1928 2074 2077 2060 0
2072 2050 2046 2042 0
2182 2064 2033 2049 0
1942 2055 2038 2050 0
2003 2076 2034 2044 0
2196 2058 2027 2047 0
2008 2062 2020 2056 0
1945 2059 1973 2042 0
2181 2063 1983 2047 0
2083 2062 2014 2062 0
1913 2052 2039 2065 0
2121 2050 2090 2047 0
2148 2060 2088 2049 0
1930 2062 2040 2046 0
2060 2061 1929 2040 0
2190 2066 1943 2066 0
1966 2061 1971 2037 1
1990 2053 2192 2061 1
2190 2058 2298 2060 1
2033 2056 2263 2057 1
1920 2050 2171 2053 1
2156 2058 2101 2071 1
2088 2053 2059 2047 2
1912 2053 2027 2048 2
2114 2059 1984 2038 2
2152 2063 1980 2046 3
1938 2059 1979 2039 3
2039 2056 1975 2039 3
2198 2065 1973 2047 4
1998 2066 1970 2047 4
1979 2073 1898 2030 5
2197 2063 1878 2029 5
2037 2066 1874 2039 5
1935 2063 2109 2058 6
2146 2052 2273 2102 6
2127 2062 2272 2063 7
1911 2052 2189 2061 7
2071 2050 2119 2072 8
2165 2058 2094 2051 8
1951 2060 2056 2048 9
2015 2055 1996 2043 9
2206 2067 1953 2039 10
1998 2055 1928 2024 10
1951 2056 1905 2040 11
2169 2049 1981 2046 11
2075 2064 2064 2045 12
1911 2056 1961 2007 12
2134 2064 1918 2021 13
2130 2057 2016 2034 14
1899 2046 2225 2069 14
2053 2049 2250 2088 15
2178 2056 2151 2049 15
1957 2059 2021 2050 16
1985 2057 2068 2057 16
2197 2075 2091 2076 17
2042 2075 2018 2066 17
1951 2059 2009 2046 18
2173 2052 1999 2048 18
2073 2049 1989 2038 19
1917 2049 1932 2024 19
2116 2037 1910 2016 20
2147 2042 1927 2032 20
1924 2050 2094 2055 21
2027 2050 2170 2097 21
2178 2058 2136 2066 22
1976 2056 2016 2044 22
1982 2054 2005 2015 23
2189 2061 2050 2050 24
2050 2073 2146 2088 24
1941 2076 2122 2081 25
2169 2072 1995 2045 25
2118 2064 1930 2011 26
1920 2060 1898 2014 26
2100 2072 2168 2100 27
2161 2065 2204 2081 27
1939 2066 2068 2048 28
2025 2072 1994 2029 28
2199 2061 2047 2065 29
1994 2058 2065 2060 29
1942 2041 2009 2058 30
2177 2064 1955 2036 30
2070 2061 2039 2046 31
1917 2061 2092 2049 31
2144 2055 2042 2049 32
2139 2058 2016 2069 32
1918 2057 2048 2084 33
2077 2044 1990 2043 33
2182 1993 1967 2026 33
1921 2025 2031 2038 34
2004 2052 2013 2019 34
2190 2095 2090 2072 35
2016 2101 2082 2075 35
1951 2072 2101 2049 36
2171 2074 2084 2057 36
2061 2075 2021 2037 36
1916 2057 2006 2033 37
2127 2052 1928 2022 37
2145 2069 1847 2047 38
1924 2056 2062 2050 38
2055 2049 2214 2078 39
2184 2062 2219 2065 39
1957 2063 2122 2035 40
1992 2066 2097 2050 40
2207 2074 2133 2090 40
2040 2085 1959 2073 41
1940 2081 1918 2077 41
2176 2066 1977 2040 42
2102 2059 2169 2065 42
1899 2041 2140 2019 42
2092 2044 1987 2026 43
2160 2048 1873 2015 43
1895 2039 1897 2033 44
2055 2033 1851 1943 44
2189 2046 2086 2097 45
1971 2046 2214 2086 45
1961 2053 2212 2117 45
2188 2074 2052 2067 46
2042 2073 1977 2056 46
1916 2056 2070 2049 47
2155 2060 2219 2075 47
2125 2078 2031 2040 48
1927 2078 1853 2028 48
2115 2072 1924 2044 48
2200 2073 2142 2103 49
1944 2076 2171 2060 49
2003 2062 2089 2051 50
2203 2065 1993 2021 50
1981 2044 1962 2033 50
1961 2031 1922 1997 51
2169 2035 1980 2035 51
2060 2063 2006 2054 52
1899 2060 2160 2110 52
2134 2067 2181 2064 52
2148 2062 2001 2042 53
1910 2055 1909 2007 53
2073 2056 1998 2070 54
2191 2068 2230 2090 54
1961 2069 2208 2065 54
2014 2079 2038 2042 55
2218 2063 1885 2033 55
2026 2086 2018 2054 56
1938 2075 2063 2046 56
2183 2062 2019 2041 56
2111 2059 1930 2029 57
1888 2045 2161 2124 57
2132 2043 1930 1999 57
2133 2042 1869 2032 58
1925 2045 2079 2037 58
2038 2047 2312 2106 59
2189 2068 2165 2076 59
1944 2051 2036 2059 59
2012 2065 1921 2021 60
2201 2059 2087 2055 60
2049 2066 2037 2041 60
1928 2051 1973 2032 61
2153 2063 2012 2032 61
2086 2042 2015 2053 61
1909 2052 1887 2002 62
2085 2057 2137 2076 62
2149 2056 2121 2064 62
1936 2052 2171 2101 63
2020 2061 2084 2033 63
2176 2058 2056 2031 63
2007 2062 2054 2052 64
1966 2053 1774 2016 64
2206 2045 1794 1999 65
2070 2064 2047 2059 65
1909 2069 2353 2173 65
2148 2070 2224 2064 66
2136 2077 1972 2043 66
1919 2049 1879 2029 66
2084 2054 2112 2044 67
2178 2068 2204 2080 67
1943 2050 2112 2054 67
2015 2073 1894 2014 68
2197 2065 1927 2046 68
2006 2069 1991 2065 68
1938 2059 2090 2056 69
2188 2062 2016 2035 69
2074 2070 2122 2037 69
1902 2055 2202 2095 70
2151 2075 2070 2102 70
2141 2054 2060 2044 70
1930 2064 1936 1995 71
2055 2062 2004 2076 71
2193 2069 2081 2081 72
1958 2073 2064 2081 72
1983 2053 2064 2069 72
2208 2054 1921 1988 73
2020 2064 2020 2044 73
1921 2057 2105 2064 73
2180 2065 2031 2024 74
2097 2056 1998 2042 74
1896 2048 2037 2049 74
2117 2047 2017 2055 75
2152 2050 2038 2056 75
1902 2047 2113 2039 75
2042 2050 1984 2032 76
2209 2052 2071 2040 76
1966 2061 2110 2088 76
1978 2062 2157 2084 77
2203 2079 2106 2067 77
2031 2058 1882 2043 78
1903 2039 1919 2053 78
2176 2070 2229 2074 78
2121 2068 2223 2076 79
1922 2060 1980 2020 79
2109 2045 1915 2018 79
2175 2080 2055 2057 80
1930 2064 2015 2040 80
2032 2066 2008 2049 80
2214 2061 2009 2066 81
1983 2067 1960 2037 81
1955 2049 1955 2020 81
2199 2057 2024 2054 82
2069 2068 2036 2047 82
1892 2061 2173 2071 82
2141 2066 2109 2074 83
2149 2075 2126 2080 83
1895 2063 2082 2036 83
2045 2063 1967 2042 84
2200 2050 1948 2011 84
1935 2050 2246 2141 84
2016 2062 2184 2083 85
2215 2062 2023 2054 85
1989 2068 1829 1997 85
1922 2063 2015 2030 86
2221 2075 2159 2084 86
2101 2087 2123 2067 86
1915 2058 2034 2050 86
2119 2047 1901 1998 87
2151 2044 1919 2053 87
1881 2047 2155 2048 87
2070 2046 2100 2017 88
2211 2079 2134 2065 88
1940 2060 1953 2064 88
1986 2055 1782 2029 89
2194 2059 2176 2115 89
2019 2066 2330 2091 89
1924 2068 2098 2014 89
2168 2059 1924 2037 90
2109 2051 1901 2007 90
1900 2053 2065 2082 90
2113 2052 2148 2036 90
2159 2059 1988 2044 91
1895 2055 2047 2032 91
2050 2062 1890 2061 91
2176 2030 1915 2037 92
1991 2080 2150 2032 92
1985 2074 2291 2103 92
2226 2091 2164 2040 92
2057 2059 1737 1984 93
1910 2042 1896 2030 93
2167 2054 2228 2102 93
2127 2082 2265 2117 94
1913 2060 1890 2038 94
2077 2063 1937 2064 94
2189 2062 2280 2089 95
1915 2050 2160 2051 95
2007 2044 1840 1965 95
2213 2041 1766 2007 95
1992 2065 2138 2047 96
1927 2060 2312 2100 96
2208 2063 2166 2066 96
2058 2036 1816 2002 97
1892 2031 1778 2000 97
2124 2062 2068 2123 97
2153 2083 2264 2074 97
1896 2053 2070 2011 98
2073 2044 1992 2003 98
2195 2056 1931 2053 98
1920 2057 2068 2067 99
1996 2077 2196 2085 99
2222 2062 1988 2046 99
2046 2072 2020 2085 99
1920 2039 1978 2013 100
2185 2051 2032 2009 100
2099 2050 1973 2045 100
1890 2078 2142 2094 100
2154 2066 2157 2066 101
2151 2071 2100 2041 101
1899 2049 2011 2079 101
2052 2075 2033 2071 101
2188 2087 2154 2090 102
1938 2061 2066 2060 102
2000 2057 1904 1999 102
2226 2056 1854 2035 102
2061 2071 2181 2064 103
1912 2052 2039 2038 103
2162 2048 2092 2075 103
2112 2076 2194 2078 103
1901 2039 1880 1994 104
2050 2048 1968 2060 104
2194 2059 1980 2109 104
1913 2071 2226 2058 104
2045 2070 2112 2082 105
2230 2047 1809 1965 105
1988 2068 1961 2058 105
1928 2070 2289 2094 105
2213 2071 2323 2084 106
2069 2063 1981 2005 106
1912 2034 1680 1975 106
2153 2060 2080 2064 107
2128 2072 2189 2085 107
1909 2075 2088 2073 107
2093 2048 1715 1995 107
2189 2028 1797 2015 107
1935 2072 2367 2130 108
2001 2090 2279 2105 108
2212 2065 2077 1988 108
1998 2047 1795 1969 108
1932 2069 2078 2113 109
2194 2090 2398 2176 109
2084 2075 2086 2095 109
1904 2034 1799 2004 109
2127 2053 2016 2000 110
2153 2064 2033 2056 110
1900 2063 2152 2092 110
2061 2050 2133 2071 110
2208 2060 2038 2028 111
1941 2061 1995 2036 111
1973 2058 1925 2023 111
2217 2040 1855 2037 111
2020 2052 2107 2096 112
1918 2059 2268 2081 112
2176 2060 2049 2057 112
2099 2040 1877 2028 112
1894 2062 2097 2039 113
2115 2065 2189 2077 113
2173 2085 2236 2081 113
1904 2038 1705 1947 113
2047 2044 1941 2056 114
2224 2075 2211 2065 114
1970 2072 2213 2110 114
1966 2057 1877 2023 114
2198 2021 1821 1999 114
2065 2080 2200 2098 115
1903 2058 2264 2064 115
2168 2065 2038 2038 115
2138 2070 1922 2032 115
1895 2059 2048 2056 116
2099 2075 2036 2045 116
2182 2030 1775 1927 116
1916 2087 2030 2047 116
2001 2066 2278 2137 116
2216 2087 2220 2074 117
1996 2049 1684 1981 117
1944 2044 1940 2070 117
2201 2064 2244 2098 117
2058 2082 2269 2049 117
1908 2089 2074 2039 118
2176 2071 2022 2110 118
2145 2079 2057 2064 118
1905 2048 1830 1991 118
2069 2042 2070 2064 118
2197 2070 2196 2088 119
1939 2072 2238 2092 119
1960 2010 1552 1915 119
2226 2054 1925 2095 119
1999 2070 2371 2086 120
1928 2084 2365 2121 120
2202 2059 1917 1976 120
2108 2014 1646 1983 120
1895 2068 2258 2110 120
2132 2077 2223 2133 120
2186 2076 1786 2015 121
1880 1998 1674 1987 121
2055 2080 2416 2205 121
2207 2083 2397 2116 121
1962 2096 2277 2076 121
1965 2005 1545 1922 121
2224 2060 2013 1981 122
2032 2091 2312 2123 122
1905 2087 2315 2092 122
2189 2048 1863 2005 122
2100 2001 1498 1945 122
1885 2084 2166 2112 122
2105 2065 2278 2100 122
2186 2094 2364 2132 123
1924 2062 1929 2018 123
2005 1996 1574 1995 123
2205 2090 2248 2048 123
1958 2069 2045 1984 123
1968 2073 2082 2033 123
2207 2025 1722 1972 123
2012 2004 1833 2062 123
1910 2124 2549 2154 123
2180 2100 2359 2113 123
2151 2090 2283 2140 123
1878 2023 1658 1908 124
2107 2028 1893 2033 124
2186 2070 2187 2093 124
1935 2088 2289 2108 124
2014 2058 1906 2034 124
2204 2030 1632 1988 124
1988 2068 2235 2050 124
1934 2046 2083 2050 124
2201 2046 2160 2076 124
2067 2047 1924 2025 124
1896 2050 2080 2133 124
2150 2083 2172 2051 124
2153 2077 2115 2069 124
1898 2049 1949 2001 124
2070 2048 1945 2042 124
2223 2050 1950 2077 124
1939 2029 2021 2012 124
1971 2060 1985 2016 124
2221 2060 1940 2051 124
2025 2080 2151 2049 124
1936 2060 2095 2055 124
2191 2057 2124 2046 124
2102 2076 2081 2075 124
1912 2071 2018 2053 124
2121 2056 2075 2032 124
2175 2062 2060 2057 124
1902 2053 1985 2076 124
2040 2061 2086 2070 124
2216 2056 2066 2043 124
1954 2048 1983 2034 124
1952 2044 2033 2057 124
2208 2066 2076 2070 124
2048 2054 2067 2054 124
1908 2039 1996 2043 124
2161 2036 1943 2008 123
2130 2061 2085 2072 123
1904 2057 2081 2067 123
2102 2053 2018 2049 123
2195 2066 2075 2088 123
1917 2046 2078 2014 123
2014 2036 2144 2057 122
2218 2039 2074 2071 122
1981 2028 2036 2038 122
1935 2048 2066 2049 121
2213 2052 2118 2078 121
2070 2056 2002 2043 121
1898 2044 1954 2035 121
2146 2048 2081 2057 120
2144 2061 2046 2040 120
1894 2058 2079 2054 120
2082 2064 2015 2037 119
2202 2067 2072 2043 119
1933 2069 2028 2041 119
1991 2065 2021 2051 118
2216 2066 1943 2048 118
2023 2074 2085 2058 118
1926 2055 2077 2045 117
2196 2071 2081 2044 117
2087 2080 2109 2076 117
1897 2074 2053 2052 116
2132 2068 2077 2066 116
2160 2067 2053 2048 115
1898 2050 2005 2036 115
2047 2056 2004 2007 115
2213 2066 2020 2050 114
1942 2050 2079 2056 114
1974 2060 2088 2082 113
2209 2055 2069 2050 113
2022 2052 1994 2026 112
1909 2039 1929 2030 112
2176 2052 1991 2053 111
2103 2053 2116 2061 111
1890 2052 2035 2058 110
2102 2053 2102 2048 110
2180 2051 1914 2021 109
1891 2044 1978 2033 109
2047 2064 2129 2036 108
2205 2057 2112 2049 108
1990 2065 2103 2043 107
1947 2052 1964 2017 107
2154 2044 1975 2040 106
2042 2056 2057 2070 106
1955 2054 2064 2037 105
2178 2052 2092 2068 105
2174 2050 2020 2034 104
1886 2044 1978 2035 104
2063 2052 1998 2064 103
2198 2056 2049 2078 103
1938 2054 2016 2020 102
2005 2049 1981 2038 102
2205 2058 2018 2033 102
1982 2060 2077 2062 101
1946 2054 2127 2069 101
2197 2059 2037 2088 100
2089 2068 1992 2036 99
1900 2051 1967 2042 99
2137 2072 2128 2042 98
2144 2056 2134 2055 98
1891 2053 2137 2067 97
2059 2054 2042 2038 97
2205 2055 1996 2039 96
1949 2056 2009 2046 96
1988 2056 2000 2057 95
2210 2050 2013 2035 95
2014 2059 2066 2073 94
1909 2072 2068 2069 94
2206 2061 1993 2057 94
2120 2062 1971 2059 93
1910 2050 2103 2048 93
2126 2049 2084 2056 92
2162 2056 2054 2040 92
1905 2052 1950 2024 91
2022 2054 2063 2070 91
2207 2068 2086 2050 91
1967 2054 2000 2032 90
1967 2053 2007 2036 90
2218 2061 2046 2048 89
2037 2057 2115 2069 89
1903 2064 2041 2069 88
2167 2057 2136 2078 88
2121 2051 2083 2066 87
1899 2049 2064 2049 87
2086 2049 1981 2045 86
2189 2064 2011 2055 86
1943 2050 2076 2054 86
2027 2050 2037 2048 85
2225 2056 1998 2040 85
1981 2057 2008 2032 84
1941 2053 2014 2047 84
2199 2062 2008 2050 84
2071 2069 1970 2039 83
1896 2052 1981 2037 83
2160 2054 1954 2030 82
2133 2059 2223 2102 82
1898 2062 2223 2082 82
2079 2059 2121 2058 81
2196 2060 2032 2043 81
1926 2064 2019 2063 80
1999 2055 2121 2059 80
2213 2061 2082 2045 79
2019 2059 2020 2043 79
1935 2060 1996 2040 79
2186 2057 2011 2043 78
2080 2079 2016 2049 78
1904 2050 2015 2051 78
2137 2057 2034 2042 77
2167 2053 1992 2031 77
1916 2053 1950 2025 76
2060 2052 1876 2011 76
2188 2055 1949 2048 76
1947 2053 2266 2084 75
1984 2051 2302 2066 75
2208 2056 2246 2074 74
2017 2051 1944 2008 74
1918 2047 1907 2036 73
2170 2063 2082 2083 73
2111 2056 2103 2066 73
1906 2066 2093 2078 72
2105 2056 2022 2036 72
2173 2060 1998 2027 71
1918 2052 2020 2041 71
2014 2057 2005 2057 70
2223 2056 2010 2051 70
1976 2064 1990 2055 70
1963 2053 1986 2033 69
2202 2076 1915 2011 69
2031 2061 2145 2080 68
1937 2060 2172 2065 68
2163 2058 2129 2046 68
2124 2054 1974 2018 67
1919 2049 2007 2029 67
2080 2053 2168 2100 66
2176 2059 2175 2086 66
1935 2054 2023 2061 65
2003 2055 1927 2007 65
2190 2055 2049 2039 64
2003 2052 2094 2048 64
1939 2049 2082 2048 64
2193 2055 2010 2037 63
2069 2055 1957 2033 63
1908 2052 1958 2035 62
2134 2078 2016 2058 62
2143 2062 2081 2062 61
1889 2052 2052 2030 61
2078 2055 2015 2041 60
2205 2058 1974 2037 60
1975 2054 2033 2030 60
1998 2066 2065 2037 59
2212 2066 2147 2071 59
2024 2068 2236 2129 58
1947 2057 2182 2106 58
2176 2052 2082 2065 57
2101 2068 2006 2056 57
1914 2057 2025 2041 56
2112 2047 2037 2048 56
2151 2054 1983 2032 55
1910 2043 1925 2024 55
2024 2044 1994 2039 54
2183 2058 1971 2028 54
1973 2066 2002 2037 54
1980 2058 2091 2072 53
2199 2073 2127 2075 53
2057 2073 2081 2069 53
1912 2060 1970 2021 52
2148 2065 1881 2047 52
2120 2057 2110 2088 51
1914 2050 2204 2067 51
2103 2054 2182 2068 51
2184 2073 2082 2053 50
1928 2059 1951 2043 50
2021 2058 1985 2057 50
2199 2061 2060 2050 49
1986 2054 2064 2056 49
1940 2045 2022 2034 49
2187 2059 1955 2021 48
2052 2063 1927 2041 48
1919 2058 2115 2074 48
2154 2062 2166 2068 47
2123 2061 2136 2064 47
1900 2055 2031 2035 47
2087 2058 1935 2033 46
2203 2074 1980 2072 46
1957 2066 2041 2050 46
2001 2059 2097 2048 45
2205 2066 2055 2045 45
1996 2057 1988 2038 45
1941 2058 1995 2044 44
2183 2055 2060 2048 44
2086 2062 2150 2057 44
1912 2060 2071 2048 43
2128 2062 2031 2061 43
2151 2071 2060 2055 42
1919 2065 2072 2058 42
2052 2058 2084 2056 42
2211 2066 2050 2067 41
1968 2059 2005 2054 41
1982 2058 1975 2039 41
2203 2063 1975 2060 40
2033 2062 2018 2072 40
1928 2055 2128 2067 40
2169 2060 2105 2059 39
2103 2060 2007 2034 39
1926 2068 1956 2043 39
2099 2070 1979 2056 38
2172 2065 2172 2081 38
1909 2040 2177 2041 38
2062 2075 2099 2064 37
2202 2069 1996 2047 37
1992 2074 1964 2062 36
1977 2058 2060 2059 36
2187 2057 2109 2045 36
2041 2056 2092 2047 36
1935 2055 2057 2034 35
2138 2052 1996 2045 35
2120 2057 1998 2054 35
1912 2048 2021 2052 34
2082 2045 2014 2048 34
2169 2062 1978 2041 34
1945 2059 1981 2051 33
2016 2067 2029 2067 33
2181 2058 2153 2070 33
2003 2063 2160 2047 32
1954 2066 2087 2033 32
2172 2066 2026 2031 32
2076 2071 2016 2063 32
1918 2055 2016 2038 31
2121 2059 2025 2044 31
2131 2059 2012 2048 31
1927 2054 2025 2041 30
2053 2052 2032 2038 30
2168 2058 2065 2053 30
1963 2064 2055 2060 29
1991 2064 2050 2065 29
2194 2064 2037 2058 29
2030 2063 2027 2045 28
1949 2058 2030 2043 28
2172 2080 2045 2070 28
2099 2068 2069 2079 27
1935 2063 2065 2066 27
2095 2040 2016 2032 27
2155 2061 2020 2046 26
1938 2052 2036 2048 26
2040 2061 2061 2045 26
2194 2067 2078 2054 25
1948 2028 2039 2027 25
1982 2069 2048 2052 25
2226 2081 2048 2057 24
2039 2053 2042 2041 24
1925 2053 2040 2035 23
2159 2061 2049 2056 23
2109 2066 2041 2061 22
1919 2061 2037 2062 22
2100 2068 2047 2061 22
2167 2060 2053 2050 21
1947 2071 2053 2060 21
2029 2061 2050 2064 21
