1897,2068,2049,2054,0000
2042,2062,2008,2023,0000
2236,2069,2037,2050,0000
1949,2073,2048,2038,0000
1957,2071,2054,2059,0000
2189,2026,2004,2020,0000
2030,2047,2024,2038,0000
1923,2084,2050,2052,0000
2192,2055,2052,2078,0000
2126,2050,2026,2049,0000
1897,2061,2047,2060,0000
2102,2066,2060,2060,0000
2190,2055,2047,2040,0000
1930,2056,2038,2063,0000
2027,2078,2055,2057,0000
2214,2057,2041,2052,0000
1993,2073,2047,2043,0000
1928,2028,2053,2029,0000
2220,2116,2054,2041,0000
2062,2063,2051,2057,0000
1918,2067,2041,2077,0000
2147,2054,2024,2063,0000
2128,2054,2048,2042,0000
1914,2070,2063,2050,0000
2071,2048,2027,2031,0000
2208,2079,2039,2053,0000
1942,2060,2066,2071,0000
2005,2061,2042,2054,0000
2203,2053,2049,2060,0000
2002,2056,2035,2042,0000
1936,2051,2065,2049,0000
2187,2055,2020,2054,0000
2104,2066,2046,2068,0000
1909,2065,2052,2089,0000
2108,2024,2003,1983,0000
2150,2046,2050,2049,0000
1924,2096,2047,2056,0000
2084,2086,2067,2075,0000
2231,2101,2069,2082,0000
1952,2057,2029,2039,0000
1992,2063,2023,2051,0000
2233,2112,2081,2087,0000
2046,2082,2070,2079,0000
1916,2050,2050,2021,0000
2183,2072,2039,2040,0000
2102,2062,2053,2072,0000
1884,2035,2026,2037,0000
2081,2032,2020,2025,0000
2135,2023,2013,2026,0000
1877,2008,1990,1984,0000
1989,2023,1989,2004,0000
2192,2059,2019,2013,0000
1959,2046,2032,2056,0000
1941,2029,2028,2031,0000
2187,2044,2029,2048,0000
2047,2068,2049,2049,0000
1934,2072,2016,2026,0000
2175,2062,2055,2075,0000
2122,2058,2042,2069,0000
1906,2062,2052,2068,0000
2099,2071,2038,2057,0000
2194,2088,2066,2081,0000
1942,2056,2049,2051,0000
2027,2068,2048,2056,0000
2208,2065,2060,2061,0000
2022,2084,2075,2065,0000
1962,2052,2045,2059,0000
2212,2076,2043,2049,0000
2088,2073,2062,2047,0000
1944,2093,2128,2127,0000
2168,2084,2055,2080,0000
2163,2068,2052,2072,0000
1923,2071,2034,2061,0000
2078,2071,2050,2055,0000
2200,2066,2051,2055,0000
1950,2062,2068,2067,0000
2028,2102,2073,2067,0000
2196,2067,2074,2076,0000
2023,2058,2040,2045,0000
1920,2027,2037,2033,0000
2171,2050,2008,2028,0000
2078,2060,2057,2067,0000
1903,2050,2040,2035,0000
2100,2027,2007,1990,0000
2147,2064,2037,2050,0000
1908,2053,2046,2070,0000
2044,2046,2026,2027,0000
2185,2050,2061,2058,0000
1946,2044,1980,1984,0000
1976,2072,2053,2071,0000
2198,2044,2036,2059,0000
2027,2054,2030,2046,0000
1896,2034,2014,1998,0000
2160,2046,2014,2018,0000
2107,2049,2040,2053,0000
1904,2063,2053,2072,0000
2090,2057,2032,2037,0000
2196,2080,2062,2070,0000
1938,2071,2055,2054,0000
2058,2102,2089,2097,0000
2237,2095,2069,2072,0000
2024,2100,2066,2076,0000
1976,2080,2070,2100,0000
2263,2127,2115,2107,0000
2116,2117,2081,2097,0000
1973,2114,2106,2115,0000
2186,2100,2082,2076,0000
2179,2104,2095,2111,0000
1949,2103,2106,2106,0000
2120,2092,2078,2080,0000
2197,2073,2048,2058,0000
1931,2056,2042,2042,0000
1970,2024,2017,2021,0000
2170,2015,1986,1987,0000
1983,2049,2052,2066,0000
1919,2046,2009,2017,0000
2184,2059,2041,2068,0000
2064,2051,2020,2033,0000
1878,2042,2036,2044,0000
2103,2020,2020,2015,0000
2098,2004,2002,2008,0000
1898,2046,2026,2028,0000
2032,2043,2031,2016,0000
2188,2066,2056,2055,0000
1946,2047,1986,2002,0000
1995,2069,2061,2077,0000
2188,2055,2023,2041,0000
1997,2026,2015,2016,0000
1893,2022,2019,2023,0000
2143,2037,2014,2028,0000
2076,2036,2009,2020,0000
1881,2016,2009,2027,0000
2064,2005,1997,1996,0000
2106,2003,1990,1990,0000
1844,1980,1977,1977,0000
1942,1965,1935,1947,0000
2126,1982,1962,1978,0000
1886,1981,1983,1969,0000
1899,1979,1952,1968,0000
2157,2022,2001,2032,0000
2012,2032,2003,2017,0000
1903,2034,2016,2024,0000
2153,2052,2040,2045,0000
2103,2038,2035,2039,0000
1898,2054,2037,2047,0000
2097,2061,2052,2061,0000
2191,2068,2048,2062,0000
1952,2064,2042,2052,0000
2023,2062,2046,2053,0000
2225,2072,2070,2078,0000
2004,2072,2054,2061,0000
1946,2060,2046,2054,0000
2220,2085,2069,2070,0000
2082,2075,2064,2058,0000
1907,2050,2055,2061,0000
2172,2066,2055,2065,0000
2120,2041,2037,2056,0000
1905,2057,2052,2059,0000
2055,2040,2042,2036,0000
2180,2053,2049,2055,0000
1943,2058,2038,2050,0000
2000,2052,2034,2055,0000
2198,2052,2049,2073,0000
2059,2103,2084,2093,0000
1963,2088,2071,2080,0000
2214,2097,2082,2078,0000
2124,2091,2070,2080,0000
1919,2070,2069,2080,0000
2130,2063,2046,2042,0000
2130,2029,2032,2045,0000
1868,2004,1980,1993,0000
1998,2012,1981,2021,0000
2164,2031,2009,2025,0000
1978,2073,2077,2087,0000
1997,2082,2083,2095,0000
2262,2117,2105,2095,0000
2099,2125,2138,2129,0000
1990,2122,2081,2085,0000
2220,2098,2103,2110,0000
2174,2118,2104,2109,0000
1955,2105,2092,2088,0000
2146,2105,2082,2096,0000
2225,2108,2096,2111,0000
1984,2114,2090,2096,0000
2071,2105,2099,2101,0000
2272,2118,2131,2124,0000
2048,2127,2103,2128,0000
2001,2101,2082,2089,0000
2238,2089,2088,2099,0000
2080,2073,2046,2052,0000
1942,2072,2077,2079,0000
2170,2080,2103,2118,0000
2126,2048,2020,2028,0000
1871,2022,1993,2014,0000
2039,2018,1982,2003,0000
2154,2030,2017,2039,0000
1906,2028,2027,2048,0000
1984,2028,2024,2031,0000
2191,2041,2006,2016,0000
1986,2044,2015,2016,0000
1921,2047,2026,2044,0000
2188,2040,2014,2044,0000
2071,2053,2025,2046,0000
1897,2054,2025,2031,0000
2141,2070,2060,2066,0000
2176,2089,2083,2112,0000
1936,2075,2052,2050,0000
2082,2072,2079,2112,0000
2196,2063,2051,2067,0000
1960,2068,2052,2075,0000
1982,2059,2037,2042,0000
2210,2070,2057,2053,0000
2071,2093,2090,2101,0000
1944,2072,2070,2064,0000
2216,2103,2112,2130,0000
2128,2083,2068,2075,0000
1908,2051,2041,2061,0000
2089,2042,2029,2041,0000
2165,2054,2048,2046,0000
1928,2068,2055,2068,0000
2048,2069,2061,2056,0000
2237,2096,2081,2088,0000
2004,2090,2053,2061,0000
2007,2098,2075,2082,0000
2270,2120,2100,2117,0000
2106,2124,2108,2115,0000
1936,2083,2075,2081,0000
2152,2037,2030,2018,0000
2062,2002,2010,2025,0000
1791,1959,1964,1985,0000
1966,1933,1897,1916,0000
2070,1953,1925,1891,0000
1828,1969,1961,1973,0000
1955,2002,1986,2019,0000
2180,2031,2015,2042,0000
1983,2049,2029,2043,0000
1951,2056,2057,2059,0000
2202,2063,2045,2048,0000
2068,2051,2061,2077,0000
1895,2030,2030,2041,0000
2125,2036,2020,2032,0000
2140,2051,2014,2038,0000
1894,2049,2053,2088,0000
2081,2061,2047,2053,0000
2198,2079,2039,2066,0000
1936,2062,2061,2072,0000
1990,2057,2019,2054,0000
2212,2063,2021,2040,0000
2007,2054,2035,2049,0000
1919,2055,2030,2045,0000
2204,2081,2055,2066,0000
2095,2058,2038,2041,0000
1904,2056,2045,2058,0000
2128,2057,2044,2054,0000
2164,2069,2057,2061,0000
1912,2048,2040,2045,0000
2070,2084,2063,2078,0000
2238,2081,2073,2074,0000
1982,2084,2062,2063,0000
2004,2085,2045,2065,0000
2236,2100,2084,2102,0000
2094,2117,2100,2120,0000
1976,2120,2087,2100,0000
2251,2133,2112,2123,0000
2188,2127,2104,2127,0000
1950,2103,2075,2074,0000
2138,2090,2069,2079,0000
2166,2057,2032,2033,0000
1884,2021,2001,2002,0000
1959,1984,1967,1976,0000
2101,1953,1951,1973,0000
1894,1980,1947,1964,0000
1862,1962,1952,1964,0000
2118,1976,1970,1978,0000
1998,2019,2000,1999,0000
1838,1999,1981,1988,0000
2114,2017,1986,2012,0000
2102,2044,2016,2021,0000
1862,2026,2016,2035,0000
2061,2036,2026,2038,0000
2181,2043,2039,2054,0000
1926,2053,2026,2030,0000
2008,2067,2021,2029,0000
2218,2060,2053,2060,0000
2013,2071,2056,2066,0000
1957,2081,2074,2076,0000
2204,2075,2055,2085,0000
2102,2077,2060,2073,0000
1913,2069,2047,2049,0000
2141,2065,2054,2060,0000
2183,2085,2074,2076,0000
1909,2050,2048,2058,0000
2066,2063,2062,2051,0000
2230,2079,2055,2083,0000
1952,2067,2063,2073,0000
1998,2059,2055,2078,0000
2220,2054,2044,2076,0000
2037,2086,2057,2066,0000
1940,2083,2055,2056,0000
2196,2080,2063,2054,0000
2115,2058,2048,2056,0000
1946,2111,2121,2122,0000
2112,2057,2040,2053,0000
2180,2061,2023,2050,0000
1901,2041,2015,2041,0000
2013,2046,2013,2039,0000
2200,2052,2044,2056,0000
1947,2030,2028,2033,0000
1958,2044,2045,2054,0000
2191,2044,2045,2058,0000
2041,2053,2048,2048,0000
1900,2048,2038,2046,0000
2165,2044,2043,2034,0000
2119,2052,2029,2039,0000
1891,2059,2046,2046,0000
2093,2056,2069,2080,0000
2209,2081,2057,2077,0000
1924,2070,2048,2060,0000
2015,2068,2048,2066,0000
2229,2066,2050,2055,0000
1985,2062,2056,2057,0000
1946,2077,2049,2057,0000
2215,2076,2056,2065,0000
2076,2065,2056,2062,0000
1900,2060,2051,2053,0000
2159,2065,2050,2058,0000
2131,2047,2039,2050,0000
1935,2071,2044,2045,0000
2073,2054,2068,2079,0000
2204,2065,2048,2043,0000
1927,2043,2032,2033,0000
1977,2036,2000,2007,0000
2215,2056,2046,2062,0000
2024,2075,2029,2059,0000
1955,2080,2080,2095,0000
2201,2062,2066,2096,0000
2112,2086,2055,2064,0000
1913,2069,2062,2081,0000
2139,2050,2051,2065,0000
2165,2064,2053,2052,0000
1903,2062,2058,2058,0000
2039,2047,2051,2061,0000
2229,2080,2072,2066,0000
1945,2056,2035,2051,0000
1969,2061,2044,2055,0000
2216,2052,2047,2054,0000
2048,2073,2054,2044,0000
1917,2071,2059,2080,0000
2178,2064,2035,2055,0000
2119,2060,2048,2070,0000
1881,2045,2023,2032,0000
2092,2053,2036,2047,0000
2179,2058,2045,2052,0000
1910,2050,2046,2052,0000
2005,2037,2036,2041,0000
2203,2052,2040,2032,0000
1976,2056,2038,2043,0000
1960,2067,2008,2021,0000
2212,2064,2052,2089,0000
2033,2040,2018,2032,0000
1908,2078,2048,2062,0000
2148,2040,2039,2047,0000
2132,2058,2034,2027,0000
1898,2061,2039,2047,0000
2082,2064,2061,2068,0000
2192,2060,2048,2052,0000
1921,2042,2029,2038,0000
1986,2043,2027,2040,0000
2223,2061,2046,2049,0000
2002,2063,2067,2073,0000
1937,2061,2044,2055,0000
2196,2064,2047,2056,0000
2085,2065,2040,2059,0000
1886,2050,2034,2041,0000
2133,2046,2047,2041,0000
2164,2063,2051,2064,0000
1897,2059,2033,2042,0000
2055,2052,2042,2068,0000
2204,2049,2031,2041,0000
1942,2058,2039,2045,0000
1979,2060,2038,2048,0000
2221,2058,2045,2049,0000
2028,2068,2062,2063,0000
1914,2056,2025,2033,0000
2171,2045,2045,2059,0000
2128,2089,2075,2090,0000
1908,2073,2050,2053,0000
2143,2089,2112,2123,0000
2194,2073,2053,2076,0000
1915,2060,2040,2052,0000
2030,2055,2040,2053,0000
2212,2053,2051,2057,0000
1996,2082,2055,2062,0000
1965,2057,2060,2068,0000
2215,2060,2048,2054,0000
2048,2053,2037,2050,0000
1887,2026,2005,1999,0000
2158,2050,2030,2045,0000
2126,2053,2034,2048,0000
1904,2051,2028,2049,0000
2087,2048,2022,2034,0000
2201,2074,2064,2067,0000
1918,2057,2051,2063,0000
2018,2065,2052,2058,0000
2207,2048,2039,2046,0000
2012,2076,2053,2067,0000
1934,2063,2036,2045,0000
2213,2064,2048,2054,0000
2088,2064,2064,2066,0000
1889,2058,2040,2040,0000
2153,2067,2046,2052,0000
2150,2060,2048,2041,0000
1902,2063,2039,2044,0000
2052,2047,2037,2053,0000
2213,2065,2057,2056,0000
1930,2049,2041,2054,0000
1983,2061,2049,2055,0000
2218,2056,2043,2056,0000
2014,2062,2035,2044,0000
1925,2060,2051,2068,0000
2188,2045,2041,2053,0000
2099,2059,2044,2055,0000
1880,2053,2039,2043,0000
2128,2062,2060,2079,0000
2169,2057,2042,2050,0000
1919,2075,2046,2056,0000
2039,2051,2047,2058,0000
2220,2074,2080,2079,0000
1952,2057,2012,2028,0000
1960,2060,2045,2065,0000
2215,2056,2037,2046,0000
2049,2065,2052,2048,0000
1902,2053,2050,2066,0000
2181,2064,2047,2062,0000
2120,2067,2044,2047,0000
1885,2064,2031,2040,0000
2096,2050,2036,2050,0000
2209,2069,2039,2057,0000
1918,2060,2039,2053,0000
2006,2046,2014,2020,0000
2262,2097,2054,2071,0000
1969,2056,2038,2038,0000
1949,2065,2055,2060,0000
2212,2063,2048,2054,0000
2049,2052,2043,2047,0000
1897,2071,2050,2048,0000
2158,2058,2050,2048,0000
2143,2059,2036,2044,0000
1893,2052,2039,2045,0000
2067,2051,2054,2052,0000
2200,2062,2046,2040,0000
1916,2058,2052,2062,0000
1983,2049,2010,2033,0000
2208,2054,2039,2055,0000
2008,2065,2055,2068,0000
1916,2045,2039,2022,0000
2196,2058,2050,2061,0000
2086,2063,2034,2036,0000
1877,2047,2056,2070,0000
2143,2062,2057,2059,0000
2167,2068,2040,2043,0000
1901,2052,2032,2046,0000
2052,2057,2031,2025,0000
2206,2054,2020,2050,0000
1963,2072,2048,2064,0000
1964,2056,2024,2047,0000
2225,2062,2032,2040,0000
2022,2053,2046,2061,0000
1908,2045,2041,2059,0000
2192,2072,2036,2049,0000
2115,2059,2054,2062,0000
1890,2060,2047,2052,0000
2112,2052,2037,2049,0000
2184,2060,2059,2060,0000
1906,2057,2046,2060,0000
2018,2054,2039,2038,0000
2226,2078,2028,2044,0000
1958,2049,2036,2038,0000
1945,2054,2058,2068,0000
2211,2050,2053,2067,0000
2069,2071,2076,2096,0000
1910,2067,2038,2047,0000
2178,2068,2027,2041,0000
2132,2071,2049,2059,0000
1899,2064,2049,2053,0000
2074,2036,2039,2040,0000
2210,2073,2040,2056,0000
1919,2058,2032,2050,0000
2009,2059,2040,2054,0000
2211,2052,2041,2041,0000
1981,2054,2038,2033,0000
1931,2048,2075,2080,0000
2205,2059,2042,2054,0000
2072,2054,2047,2055,0000
1898,2054,2041,2059,0000
2164,2068,2061,2071,0000
2157,2055,2041,2058,0000
1903,2048,2019,2027,0000
2074,2067,2043,2050,0000
2213,2063,2045,2055,0000
1943,2062,2042,2051,0000
1980,2050,2049,2055,0000
2234,2056,2063,2067,0000
2023,2058,2045,2057,0000
1924,2072,2053,2061,0000
2201,2074,2079,2084,0000
2095,2052,2037,2050,0000
1872,2049,2051,2055,0000
2123,2069,2027,2041,0000
2172,2054,2013,2039,0000
1903,2057,2025,2046,0000
2015,2042,2020,2036,0000
2214,2067,2047,2047,0000
1957,2052,2055,2069,0000
1958,2051,2036,2042,0000
2219,2065,2043,2050,0000
2032,2064,2041,2019,0000
1901,2061,2094,2095,0000
2192,2064,2025,2047,0000
2120,2063,2048,2065,0000
1882,2051,2033,2042,0000
2098,2054,2054,2053,0000
2198,2074,2055,2066,0000
1915,2057,2048,2051,0000
2022,2064,2050,2052,0000
2230,2061,2056,2062,0000
1986,2063,2052,2056,0000
1939,2056,2044,2049,0000
2213,2052,2039,2040,0000
2063,2061,2044,2047,0000
1902,2057,2034,2045,0000
2147,2035,2015,2007,0000
2158,2080,2106,2120,0000
1892,2052,2021,2033,0000
2075,2055,2042,2064,0000
2222,2072,2043,2056,0000
1931,2054,2048,2049,0000
1976,2042,2040,2051,0000
2258,2090,2052,2068,0000
2016,2055,2049,2055,0000
1919,2053,2042,2050,0000
2173,2049,2033,2042,0000
2103,2076,2057,2063,0000
1889,2064,2044,2038,0000
2141,2061,2041,2050,0000
2176,2054,2053,2058,0000
1888,2052,2053,2054,0000
2042,2050,2030,2040,0000
2202,2058,2032,2048,0000
1950,2067,2021,2037,0000
1959,2067,2052,2065,0000
2194,2045,2042,2052,0000
2031,2057,2042,2057,0000
1920,2061,2049,2060,0000
2176,2052,2051,2058,0000
2128,2072,2058,2065,0000
1873,2042,2048,2041,0000
2095,2047,2031,2048,0000
2182,2062,2050,2061,0000
1919,2070,2041,2056,0000
2032,2058,2037,2035,0000
2221,2071,2067,2069,0000
1973,2060,2040,2058,0000
1950,2056,2037,2063,0000
2209,2059,2045,2065,0000
2049,2063,2038,2039,0000
1892,2056,2055,2080,0000
2173,2063,2041,2052,0000
2137,2060,2061,2056,0000
1914,2079,2018,2042,0000
2068,2036,2031,2046,0000
2216,2079,2048,2064,0000
1917,2056,2030,2035,0000
2007,2050,2064,2050,0000
2226,2057,2048,2054,0000
1993,2064,2051,2062,0000
1930,2052,2050,2049,0000
2205,2057,2049,2058,0000
2076,2064,2034,2045,0000
1895,2059,2050,2054,0000
2149,2064,2050,2064,0000
2165,2064,2057,2058,0000
1893,2049,2041,2051,0000
2037,2027,2020,2029,0000
2197,2038,2039,2037,0000
1937,2048,2047,2063,0000
1969,2035,2035,2025,0000
2225,2076,2036,2062,0000
2019,2063,2046,2060,0000
1910,2048,2053,2077,0000
2189,2061,2045,2057,0000
2094,2065,2048,2041,0000
1883,2061,2058,2076,0000
2127,2057,2054,2061,0000
2175,2060,2042,2056,0000
1906,2065,2042,2049,0000
2024,2052,2031,2042,0000
2210,2048,2039,2044,0000
1957,2053,2045,2052,0000
1947,2041,2035,2039,0000
2219,2056,2053,2060,0000
2039,2059,2044,2051,0000
1902,2061,2060,2071,0000
2175,2064,2044,2051,0000
2123,2055,2057,2059,0000
1897,2067,2035,2072,0000
2096,2060,2052,2059,0000
2220,2079,2056,2084,0000
1919,2040,2031,2037,0000
2024,2071,2064,2077,0000
2231,2078,2061,2079,0000
1990,2073,2039,2045,0000
1939,2053,2053,2061,0000
2251,2094,2065,2072,0000
2067,2059,2033,2047,0000
1909,2072,2050,2059,0000
2158,2059,2039,2048,0000
2146,2053,2048,2051,0000
1890,2055,2043,2026,0000
2084,2059,2095,2085,0000
2207,2058,2012,2013,0000
1932,2057,2045,2053,0000
1995,2068,2055,2076,0000
2218,2060,2048,2050,0000
2011,2062,2056,2057,0000
1942,2076,2058,2067,0000
2188,2056,2043,2045,0000
2088,2058,2041,2046,0000
1894,2053,2043,2048,0000
2098,2033,2017,2029,0000
2187,2079,2054,2062,0000
1904,2064,2046,2056,0000
2032,2058,2040,2052,0000
2226,2074,2036,2039,0000
1927,2037,2020,2046,0000
1994,2088,2051,2074,0000
2218,2060,2039,2062,0000
2024,2065,2048,2058,0000
1916,2053,2039,2054,0000
2176,2054,2043,2063,0000
2104,2051,2035,2049,0000
1895,2048,2036,2048,0000
2095,2044,2030,2034,0000
2175,2062,2046,2047,0000
1922,2063,2014,2020,0000
2028,2056,2042,2056,0000
2220,2056,2034,2050,0000
1983,2072,2051,2058,0000
1944,2057,2050,2051,0000
2214,2066,2047,2057,0000
2056,2064,2034,2041,0000
1920,2072,2050,2058,0000
2153,2052,2037,2043,0000
2144,2074,2044,2063,0000
1884,2049,2058,2065,0000
2072,2046,2050,2065,0000
2210,2072,2031,2052,0000
1939,2063,2034,2043,0000
2016,2067,2040,2053,0000
2227,2060,2047,2062,0000
1993,2058,2029,2042,0000
1916,2052,2037,2040,0000
2201,2052,2042,2057,0000
2070,2060,2043,2044,0000
1882,2055,2045,2054,0000
2135,2054,2055,2055,0000
2146,2055,2031,2052,0000
1882,2047,2031,2033,0000
2047,2043,2043,2045,0000
2223,2075,2037,2042,0000
1919,2042,2042,2052,0000
1999,2067,2042,2049,0000
2211,2044,2045,2043,0000
2031,2070,2052,2054,0000
1917,2060,2033,2041,0000
2189,2064,2041,2045,0000
2101,2057,2041,2055,0000
1878,2047,2036,2050,0000
2113,2053,2048,2052,0000
2175,2061,2046,2061,0000
1928,2065,2046,2058,0000
2022,2040,2033,2043,0000
2215,2059,2034,2048,0000
1964,2057,2042,2043,0000
1938,2044,2026,2042,0000
2218,2057,2042,2045,0000
2053,2075,2072,2090,0000
1899,2056,2045,2055,0000
2180,2060,2052,2065,0000
2131,2073,2019,2048,0000
1889,2061,2051,2055,0000
2105,2058,2042,2054,0000
2201,2068,2054,2064,0000
1931,2064,2057,2066,0000
2001,2046,2036,2053,0000
2225,2056,2038,2056,0000
1983,2055,2041,2056,0000
1938,2057,2047,2053,0000
2222,2061,2063,2071,0000
2074,2058,2035,2038,0000
1882,2061,2051,2045,0000
2164,2076,2052,2059,0000
2164,2072,2095,2088,0000
1900,2060,2059,2072,0000
2077,2067,2035,2032,0000
2217,2066,2057,2069,0000
1926,2052,2067,2081,0000
1994,2046,2030,2053,0000
2228,2071,2040,2054,0000
2012,2070,2054,2062,0000
1903,2058,2034,2044,0000
2200,2058,2044,2052,0000
2091,2057,2044,2057,0000
1886,2054,2042,2047,0000
2128,2052,2045,2057,0000
2173,2058,2048,2056,0000
1906,2067,2043,2050,0000
2038,2056,2048,2049,0000
2228,2076,2070,2067,0000
1940,2050,2037,2048,0000
1962,2063,2043,2061,0000
2223,2062,2038,2065,0000
2027,2050,2043,2041,0000
1897,2051,2046,2049,0000
2167,2050,2052,2063,0000
2120,2063,2046,2061,0000
1871,2042,2039,2042,0000
2114,2058,2030,2029,0000
2200,2070,2046,2051,0000
1906,2061,2048,2048,0000
1996,2031,2022,2038,0000
2229,2068,2050,2056,0000
1978,2068,2056,2068,0000
1945,2063,2040,2046,0000
2198,2046,2045,2046,0000
2037,2044,2030,2048,0000
1903,2067,2053,2063,0000
2154,2044,2033,2049,0000
2147,2055,2042,2050,0000
1893,2060,2044,2051,0000
2073,2045,2042,2053,0000
2202,2054,2041,2058,0000
1928,2063,2042,2055,0000
1994,2060,2038,2046,0000
2220,2060,2042,2048,0000
2002,2058,2039,2047,0000
1914,2042,2045,2052,0000
2195,2056,2052,2059,0000
2096,2074,2066,2072,0000
1893,2062,2037,2053,0000
2143,2070,2052,2072,0000
2155,2050,2023,2046,0000
1914,2071,2050,2064,0000
2041,2048,2033,2043,0000
2220,2070,2025,2029,0000
1957,2074,2065,2075,0000
1963,2051,2025,2041,0000
2215,2065,2046,2060,0000
1997,2043,2016,2030,0000
1917,2052,2042,2045,0000
2203,2069,2051,2055,0000
2128,2068,2084,2090,0000
1880,2047,2049,2064,0000
2116,2055,2048,2058,0000
2174,2055,2037,2045,0000
1916,2069,2049,2049,0000
2030,2039,2055,2057,0000
2195,2046,2040,2058,0000
1961,2049,2015,2026,0000
1948,2049,2063,2059,0000
2216,2054,2047,2044,0000
2051,2066,2040,2045,0000
1913,2068,2044,2063,0000
2165,2057,2032,2045,0000
2134,2059,2036,2046,0000
1897,2059,2056,2067,0000
2088,2055,2027,2037,0000
2195,2058,2045,2041,0000
1903,2050,2059,2065,0000
2012,2062,2035,2058,0000
2217,2057,2039,2050,0000
1991,2062,2038,2049,0000
1949,2082,2052,2057,0000
2183,2040,2042,2047,0000
2067,2047,2048,2060,0000
1893,2056,2042,2046,0000
2154,2074,2052,2068,0000
2159,2076,2051,2048,0000
1899,2053,2094,2096,0000
2064,2055,2028,2050,0000
2213,2069,2045,2069,0000
1931,2053,2021,2046,0000
1973,2053,2047,2048,0000
2216,2061,2062,2049,0000
2002,2057,2030,2040,0000
1925,2058,2047,2059,0000
2165,2041,2032,2040,0000
2137,2089,2067,2075,0000
1888,2054,2048,2054,0000
2106,2041,2038,2051,0000
2192,2063,2060,2069,0000
1898,2058,2039,2048,0000
2046,2058,2052,2061,0000
2223,2059,2030,2047,0000
1958,2069,2039,2044,0000
1938,2046,2038,2040,0000
2221,2071,2043,2042,0000
2033,2055,2015,2019,0000
1913,2067,2044,2061,0000
2178,2063,2033,2056,0000
2101,2053,2036,2042,0000
1894,2055,2050,2053,0000
2101,2055,2048,2057,0000
2203,2065,2052,2061,0000
1914,2047,2041,2055,0000
2014,2051,2047,2050,0000
2228,2067,2050,2053,0000
1972,2057,2032,2036,0000
1964,2067,2045,2053,0000
2204,2057,2052,2041,0000
2048,2055,2042,2055,0000
1896,2048,2043,2056,0000
2155,2049,2037,2052,0000
2150,2078,2038,2059,0000
1887,2049,2045,2059,0000
2068,2053,2031,2042,0000
2191,2054,2051,2054,0000
1935,2064,2070,2065,0000
1980,2049,2041,2039,0000
2231,2069,2054,2067,0000
2008,2071,2044,2039,0000
1937,2070,2061,2066,0000
2207,2058,2051,2064,0000
2098,2066,2048,2058,0000
1899,2058,2048,2055,0000
2138,2065,2054,2063,0000
2177,2067,2047,2052,0000
1901,2062,2047,2060,0000
2058,2068,2042,2050,0000
2209,2053,2047,2052,0000
1960,2060,2029,2042,0000
1974,2055,2051,2050,0000
2238,2076,2065,2066,0000
2034,2056,2058,2065,0000
1911,2064,2049,2056,0000
2179,2054,2047,2061,0000
2109,2055,2033,2042,0000
1882,2058,2057,2058,0000
2102,2047,2033,2036,0000
2188,2070,2063,2081,0000
1917,2066,2027,2039,0000
2027,2053,2023,2042,0000
2220,2061,2052,2061,0000
1967,2060,2050,2059,0001
1947,2052,2046,2057,0001
2207,2053,2039,2056,0001
2039,2050,2045,2064,0001
1913,2068,2052,2059,0001
2172,2067,2056,2063,0001
2144,2075,2056,2059,0001
1884,2057,2043,2041,0001
2083,2049,2042,2048,0001
2196,2056,2048,2057,0001
1940,2073,2048,2059,0001
2006,2055,2040,2055,0001
2224,2064,2036,2051,0001
1986,2059,2042,2054,0001
1923,2048,2039,2050,0001
2204,2058,2033,2048,0001
2080,2067,2039,2055,0001
1873,2043,2027,2038,0001
2166,2074,2061,2074,0001
2166,2069,2050,2058,0001
1904,2070,2047,2057,0001
2061,2052,2039,2057,0001
2196,2044,2026,2041,0001
1924,2046,2031,2031,0001
1965,2039,2025,2044,0001
2208,2041,2034,2049,0001
2007,2048,2023,2033,0002
1909,2053,2041,2055,0002
2173,2047,2037,2050,0003
2113,2065,2047,2060,0003
1883,2053,2040,2058,0004
2120,2057,2040,2049,0005
2155,2049,2038,2053,0005
1914,2088,2052,2060,0006
2040,2049,2047,2054,0007
2239,2086,2073,2080,0008
1976,2070,2048,2052,0008
1960,2061,2044,2062,0009
2223,2072,2055,2065,0010
2056,2075,2053,2066,0010
1902,2049,2048,2047,0011
2163,2060,2044,2043,0011
2130,2065,2052,2057,0011
1895,2070,2053,2055,0012
2100,2064,2049,2058,0012
2213,2082,2062,2088,0012
1926,2068,2053,2062,0012
2015,2050,2027,2021,0012
2231,2071,2037,2057,0013
1982,2044,2038,2045,0013
1944,2054,2042,2052,0013
2212,2062,2052,2054,0013
2040,2042,2035,2026,0013
1906,2066,2063,2100,0013
2180,2073,2068,2082,0013
2163,2071,2056,2068,0014
1890,2056,2041,2050,0014
2064,2045,2045,2042,0014
2201,2059,2039,2053,0014
1940,2057,2041,2048,0014
1983,2043,2044,2048,0015
2226,2070,2036,2040,0015
2014,2071,2055,2072,0015
1929,2078,2042,2051,0016
2199,2062,2048,2061,0016
2100,2066,2057,2067,0017
1892,2063,2054,2060,0017
2128,2064,2044,2050,0018
2174,2075,2046,2052,0018
1878,2048,2029,2028,0019
2029,2052,2026,2036,0019
2196,2051,2028,2045,0020
1955,2071,2038,2045,0021
1958,2043,2042,2052,0022
2215,2058,2038,2046,0022
2006,2028,2020,2033,0023
1921,2060,2030,2044,0024
2160,2032,2022,2028,0025
2116,2066,2047,2054,0026
1881,2034,2030,2038,0027
2105,2046,2016,2036,0028
2177,2051,2028,2044,0028
1896,2031,2028,2034,0029
2012,2033,2010,2019,0030
2205,2041,2043,2057,0030
1974,2060,2042,2056,0031
1952,2058,2041,2051,0031
2216,2063,2054,2061,0031
2063,2066,2057,2067,0031
1899,2049,2039,2046,0031
2183,2083,2076,2088,0031
2161,2078,2069,2086,0031
1898,2055,2064,2073,0031
2089,2064,2044,2050,0031
2209,2067,2043,2057,0031
1920,2060,2036,2059,0031
1994,2047,2029,2049,0031
2224,2056,2022,2042,0031
1988,2058,2047,2048,0031
1935,2064,2059,2080,0031
2226,2064,2059,2059,0031
2095,2081,2055,2062,0031
1877,2048,2031,2027,0031
2136,2043,2039,2037,0031
2141,2044,2028,2028,0031
1885,2054,2044,2051,0031
2063,2050,2030,2039,0031
2199,2053,2035,2039,0031
1944,2068,2046,2059,0031
1982,2055,2046,2053,0031
2220,2068,2045,2058,0031
2007,2051,2041,2046,0031
1912,2059,2042,2050,0031
2172,2047,2036,2052,0031
2117,2071,2058,2066,0031
1888,2054,2049,2055,0031
2111,2054,2045,2055,0031
2195,2080,2055,2065,0031
1899,2059,2046,2048,0031
2034,2054,2036,2046,0031
2229,2063,2057,2073,0031
1959,2056,2042,2055,0031
1947,2057,2037,2050,0031
2223,2060,2032,2045,0031
2039,2060,2041,2053,0031
1915,2067,2044,2053,0031
2167,2058,2049,2057,0031
2149,2069,2060,2068,0031
1904,2063,2062,2070,0031
2098,2061,2041,2054,0031
2194,2061,2043,2055,0031
1934,2093,2053,2072,0031
2018,2070,2082,2085,0031
2240,2079,2038,2051,0031
2014,2073,2067,2091,0031
1970,2101,2064,2076,0031
2229,2087,2073,2077,0031
2092,2077,2062,2066,0031
1883,2055,2026,2036,0031
2127,2035,2042,2050,0031
2147,2064,2028,2043,0031
1873,2035,2023,2031,0031
2084,2065,2021,2043,0031
2233,2084,2064,2080,0031
1934,2061,2054,2053,0031
1985,2053,2037,2040,0031
2231,2061,2045,2042,0031
1980,2039,2030,2036,0031
1914,2041,2031,2029,0031
2216,2067,2068,2081,0031
2090,2063,2045,2064,0031
1858,2034,2020,2036,0031
2129,2051,2041,2031,0031
2175,2066,2049,2048,0031
1895,2052,2039,2039,0031
2064,2058,2054,2059,0031
2240,2078,2063,2076,0031
1957,2074,2075,2090,0031
1972,2066,2045,2062,0031
2220,2052,2032,2036,0031
2015,2060,2045,2050,0031
1885,2043,2016,2029,0031
2165,2030,2029,2042,0031
2119,2053,2040,2051,0031
1860,2039,2029,2028,0031
2136,2076,2041,2054,0031
2186,2058,2047,2060,0031
1909,2064,2040,2056,0031
2018,2056,2034,2046,0031
2231,2064,2055,2065,0031
1975,2064,2051,2064,0031
1949,2061,2028,2036,0031
2216,2057,2040,2054,0031
2059,2063,2049,2060,0031
1890,2053,2039,2050,0031
2169,2064,2053,2062,0031
2152,2063,2045,2057,0031
1895,2071,2047,2060,0031
2079,2044,2031,2037,0031
2209,2065,2044,2039,0031
1933,2062,2023,2046,0031
2008,2069,2055,2077,0031
2233,2070,2041,2059,0031
1994,2063,2055,2068,0031
1920,2052,2040,2047,0031
2194,2055,2028,2046,0031
2079,2061,2038,2048,0031
1872,2047,2040,2048,0031
2168,2063,2048,2056,0031
2168,2063,2054,2059,0031
1897,2060,2042,2051,0031
2061,2053,2040,2049,0031
2202,2049,2049,2056,0031
1944,2062,2048,2053,0031
1981,2055,2042,2042,0031
2210,2045,2047,2063,0031
2019,2062,2041,2048,0031
1902,2055,2023,2025,0031
2176,2043,2041,2064,0031
2111,2065,2043,2051,0031
1888,2060,2039,2053,0031
2131,2064,2049,2060,0031
2187,2064,2048,2052,0031
1901,2056,2056,2051,0031
2033,2054,2048,2049,0031
2205,2047,2037,2046,0031
2006,2092,2070,2075,0031
1958,2058,2050,2056,0031
2228,2076,2062,2068,0031
2036,2042,2036,2048,0031
1900,2053,2037,2055,0031
2165,2064,2048,2054,0031
2167,2095,2061,2062,0031
1885,2042,2030,2039,0031
2083,2048,2023,2034,0031
2205,2076,2068,2082,0031
1914,2052,2032,2046,0031
2009,2061,2037,2056,0031
2236,2076,2045,2055,0031
1984,2065,2050,2060,0031
1933,2058,2036,2054,0031
2225,2072,2047,2062,0031
2076,2069,2047,2067,0031
1890,2063,2049,2062,0031
2164,2063,2051,2078,0031
2140,2051,2048,2046,0031
1877,2057,2038,2037,0031
2057,2044,2031,2022,0031
2182,2029,2029,2028,0031
1958,2086,2048,2061,0031
1975,2058,2043,2041,0031
2236,2088,2043,2047,0031
2009,2049,2046,2056,0031
1908,2042,2034,2049,0031
2205,2065,2054,2068,0031
2117,2078,2061,2066,0031
1878,2050,2041,2043,0031
2136,2058,2044,2057,0031
2168,2058,2029,2047,0031
1887,2050,2036,2047,0031
2045,2056,2044,2054,0031
2227,2066,2053,2062,0031
1944,2055,2039,2044,0031
1962,2053,2043,2052,0031
2234,2079,2050,2057,0031
2050,2085,2061,2055,0032
1902,2063,2056,2059,0032
2187,2054,2052,2059,0032
2123,2069,2053,2056,0032
1883,2058,2047,2049,0032
2111,2043,2016,2040,0033
2157,2027,1991,2008,0033
1897,2044,2029,2047,0033
2018,2059,2048,2052,0033
2248,2080,2084,2075,0033
1963,2044,2032,2038,0034
1928,2042,2020,2022,0034
2197,2044,2039,2041,0034
2044,2047,2033,2039,0035
1869,2036,2026,2030,0035
2159,2052,2032,2043,0035
2120,2051,2033,2045,0036
1883,2060,2038,2047,0036
2097,2052,2033,2039,0036
2200,2053,2036,2045,0037
1888,2042,2052,2064,0037
2010,2077,2058,2065,0037
2233,2065,2051,2065,0038
1999,2080,2049,2067,0038
1926,2062,2043,2056,0038
2212,2068,2055,2071,0038
2089,2070,2048,2060,0039
1898,2071,2049,2055,0039
2156,2062,2049,2054,0039
2166,2061,2041,2056,0039
1891,2058,2043,2054,0039
2061,2054,2046,2051,0039
2238,2077,2061,2068,0039
1960,2065,2049,2058,0039
1992,2072,2054,2067,0039
2236,2078,2048,2046,0039
2027,2074,2059,2062,0039
1928,2076,2060,2068,0040
2202,2061,2045,2067,0040
2116,2071,2053,2069,0040
1891,2067,2046,2058,0040
2126,2054,2054,2061,0041
2183,2066,2053,2060,0041
1917,2068,2048,2060,0041
2029,2042,2032,2033,0041
2216,2056,2044,2048,0041
1937,2041,2031,2040,0042
1948,2050,2031,2045,0042
2210,2051,2034,2048,0042
2042,2063,2038,2064,0043
1905,2061,2042,2047,0043
2174,2059,2038,2054,0043
2142,2074,2062,2066,0043
1874,2048,2042,2044,0044
2092,2043,2038,2048,0044
2189,2053,2031,2045,0045
1883,2041,2029,2038,0045
1977,2026,2011,2018,0046
2158,1984,1980,1995,0047
1884,1968,1951,1957,0047
1831,1968,1951,1964,0048
2148,1996,1980,1984,0048
2011,2012,1990,2000,0049
1833,1995,1979,1985,0049
2110,2004,1989,2001,0050
2109,2034,2023,2036,0050
1865,2050,2024,2040,0051
2102,2079,2069,2082,0051
2235,2093,2080,2079,0051
1950,2082,2065,2072,0052
2024,2085,2066,2074,0052
2263,2100,2087,2097,0052
2048,2110,2093,2102,0052
1994,2120,2103,2119,0053
2288,2138,2124,2134,0053
2188,2161,2133,2139,0053
1952,2129,2126,2131,0053
2197,2118,2096,2100,0053
2224,2111,2104,2109,0053
1921,2092,2083,2091,0053
2083,2086,2072,2074,0053
2245,2063,2042,2058,0053
1932,2032,2034,2036,0053
1951,2039,2028,2042,0053
2230,2061,2058,2080,0053
2076,2088,2075,2087,0053
1956,2106,2094,2099,0053
2264,2126,2124,2125,0053
2200,2127,2126,2144,0053
1983,2160,2144,2160,0053
2220,2159,2145,2156,0053
2295,2166,2150,2152,0053
2010,2162,2142,2146,0053
2107,2140,2125,2131,0053
2325,2157,2137,2148,0053
2048,2134,2116,2125,0053
1970,2090,2082,2091,0053
2174,2026,2006,2016,0053
1978,1988,1962,1973,0053
1737,1917,1899,1914,0053
2052,1962,1917,1930,0053
1989,1923,1901,1921,0053
1765,1948,1911,1942,0053
1975,1944,1917,1947,0053
2103,1955,1932,1954,0053
1823,1963,1943,1956,0053
1913,1975,1962,1971,0053
2155,1983,1975,1978,0053
1929,2000,1981,1982,0053
1864,1999,1993,1994,0053
2176,2034,2034,2033,0053
2078,2056,2047,2049,0053
1883,2053,2047,2043,0053
2153,2071,2053,2055,0053
2142,2049,2032,2051,0053
1902,2067,2050,2061,0053
2048,2047,2024,2034,0053
2185,2054,2023,2039,0053
1940,2059,2033,2051,0053
1967,2048,2038,2051,0053
2227,2066,2044,2057,0053
2024,2068,2045,2045,0053
1905,2050,2041,2044,0053
2185,2051,2032,2044,0053
2127,2071,2047,2055,0053
1880,2053,2037,2050,0053
2138,2075,2055,2064,0053
2187,2066,2053,2065,0053
1915,2076,2063,2071,0053
2043,2068,2052,2064,0053
2259,2085,2070,2077,0053
1974,2072,2059,2066,0053
1961,2066,2056,2063,0054
2227,2069,2058,2066,0054
2043,2062,2052,2066,0054
1884,2052,2036,2056,0054
2177,2055,2043,2061,0054
2134,2071,2046,2062,0055
1883,2050,2035,2044,0055
2073,2023,2020,2030,0055
2192,2056,2043,2057,0055
1903,2047,2035,2041,0055
2007,2043,2036,2045,0055
2223,2050,2045,2050,0055
1974,2072,2037,2048,0055
1929,2049,2043,2043,0055
2217,2056,2052,2058,0055
2064,2076,2044,2050,0054
1888,2056,2039,2045,0054
2150,2048,2034,2048,0054
2141,2052,2037,2037,0054
1879,2052,2031,2036,0053
2064,2058,2045,2064,0052
2239,2085,2075,2073,0052
1939,2061,2059,2066,0051
2013,2081,2069,2075,0050
2258,2090,2068,2072,0049
2031,2090,2084,2089,0049
1921,2083,2069,2073,0048
2222,2081,2069,2081,0047
2122,2093,2068,2070,0046
1915,2087,2061,2070,0045
2159,2093,2063,2075,0045
2203,2104,2082,2103,0044
1932,2095,2076,2082,0044
2081,2085,2073,2073,0043
2231,2095,2074,2074,0043
1969,2082,2065,2063,0042
1997,2090,2075,2079,0042
2220,2055,2040,2053,0041
2024,2057,2046,2054,0041
1877,2028,2003,2025,0041
2146,2028,2015,2037,0041
2092,2037,2020,2036,0041
1880,2043,2033,2040,0041
2085,2028,2018,2015,0041
2192,2050,2026,2035,0041
1888,2029,2003,2013,0041
2001,2034,2016,2035,0041
2266,2100,2083,2104,0041
2028,2113,2095,2104,0041
2009,2127,2119,2124,0041
2242,2082,2072,2083,0041
2039,2021,2020,2026,0041
1847,2022,2004,2016,0041
2130,2037,2014,2028,0041
2104,2012,2003,2014,0041
1845,2012,2010,2019,0041
2037,2012,1998,2002,0041
2166,2031,1997,2007,0042
1891,2025,2016,2034,0042
1994,2035,2016,2025,0042
2222,2052,2043,2053,0043
1989,2058,2048,2056,0043
1910,2030,2028,2048,0043
2166,2023,2006,2021,0043
2084,2064,2045,2048,0043
1908,2057,2052,2058,0044
2148,2058,2051,2060,0044
2177,2070,2052,2061,0044
1899,2057,2041,2052,0044
2079,2068,2067,2074,0045
2249,2094,2073,2083,0045
1963,2069,2069,2081,0045
2011,2091,2073,2090,0045
2255,2090,2070,2078,0045
2051,2090,2062,2068,0045
1929,2074,2052,2058,0045
2206,2078,2058,2069,0045
2140,2110,2080,2085,0045
1919,2074,2060,2047,0045
2145,2081,2048,2053,0045
2198,2080,2055,2069,0045
1909,2055,2019,2052,0045
1968,2011,2003,2012,0045
2203,2039,2020,2032,0045
1936,2036,2010,2020,0045
1950,2049,2031,2039,0045
2189,2032,2022,2035,0045
2035,2056,2025,2053,0045
1873,2024,2015,2024,0045
2145,2032,2019,2025,0045
2104,2036,2020,2029,0045
1834,2015,1992,1997,0045
2080,2037,2032,2033,0045
2169,2028,2036,2032,0045
1886,2020,2024,2024,0045
1977,2023,2005,2026,0045
2246,2075,2038,2054,0045
1977,2058,2032,2046,0045
1942,2064,2041,2059,0045
2207,2056,2042,2049,0045
2058,2054,2040,2048,0045
1898,2055,2058,2058,0045
2174,2072,2047,2049,0045
2179,2086,2072,2078,0045
1925,2084,2051,2074,0045
2076,2072,2076,2066,0045
2208,2061,2048,2062,0045
1956,2080,2055,2069,0045
1997,2072,2058,2068,0045
2280,2100,2078,2092,0045
2032,2068,2061,2079,0045
1944,2088,2062,2079,0045
2211,2081,2070,2084,0045
2125,2090,2071,2085,0045
1910,2066,2064,2075,0045
2148,2096,2076,2084,0045
2176,2072,2043,2059,0045
1894,2046,2010,2034,0045
2006,2021,1997,2009,0045
2169,2029,2020,2026,0046
1934,2039,2034,2038,0046
1939,2030,2045,2037,0046
2188,2031,2035,2028,0046
2000,2032,2021,2016,0047
1887,2020,2008,2018,0047
2160,2035,2012,2029,0048
2131,2073,2031,2054,0048
1871,2047,2020,2031,0049
2093,2054,2028,2039,0049
2187,2058,2031,2048,0050
1905,2053,1946,2022,0051
2031,2058,1930,2020,0051
2219,2052,1953,2038,0052
1978,2071,2071,2077,0053
1948,2068,2164,2100,0053
2202,2046,2170,2074,0054
2078,2077,2138,2076,0055
1908,2061,2080,2051,0056
2159,2055,2066,2069,0057
2157,2075,2061,2075,0059
1893,2069,2043,2055,0060
2084,2063,2025,2048,0061
2200,2071,2056,2067,0063
1937,2059,1987,2040,0065
1999,2064,1970,2028,0066
2222,2070,1983,2052,0068
1998,2056,2091,2079,0070
1918,2052,2168,2100,0072
2174,2045,2136,2065,0074
2100,2086,2090,2066,0076
1892,2056,2029,2039,0078
2144,2074,2039,2059,0080
2168,2072,2034,2057,0082
1913,2075,2003,2038,0085
2044,2041,1986,2033,0087
2201,2065,2002,2041,0089
1941,2054,2010,2043,0092
1975,2048,1951,2027,0094
2218,2058,1918,2026,0097
2027,2060,1950,2037,0099
1902,2039,2110,2073,0102
2181,2060,2238,2071,0104
2108,2060,2222,2065,0107
1892,2059,2127,2053,0109
2114,2052,2078,2062,0112
2178,2060,2064,2062,0115
1911,2057,2027,2042,0117
2034,2059,2006,2054,0120
2235,2072,2012,2066,0123
1972,2061,1988,2044,0126
1964,2063,2013,2051,0128
2228,2071,1998,2068,0131
2060,2077,2014,2073,0134
1911,2068,2045,2074,0136
2172,2076,2097,2084,0139
2146,2077,2111,2076,0141
1898,2060,2009,2035,0144
2089,2047,1949,2024,0146
2183,2045,1975,2020,0149
1911,2045,2127,2082,0151
1996,2050,2179,2074,0153
2209,2052,2115,2052,0156
1982,2049,2018,2034,0158
1934,2053,1996,2036,0160
2196,2053,1980,2046,0163
2081,2068,2012,2056,0165
1903,2059,1959,2021,0167
2140,2044,1987,2038,0170
2147,2056,2041,2052,0172
1887,2055,2113,2061,0174
2069,2073,2065,2074,0177
2216,2075,1965,2050,0179
1924,2047,1933,2053,0182
1974,2049,2140,2074,0184
2195,2048,2284,2080,0187
2023,2068,2171,2048,0190
1937,2061,2064,2047,0193
2207,2071,2039,2055,0196
2116,2078,2080,2077,0199
1903,2060,2015,2041,0203
2126,2058,1930,2026,0206
2168,2053,1961,2042,0210
1912,2053,2065,2067,0214
2046,2053,2116,2083,0218
2214,2063,2020,2043,0221
1963,2059,1897,2012,0225
1956,2046,1848,2017,0230
2212,2060,2024,2077,0234
2034,2063,2147,2057,0238
1912,2056,2179,2082,0242
2168,2056,2101,2057,0246
2117,2051,2069,2054,0250
1888,2050,2080,2060,0255
2128,2056,2005,2016,0259
2188,2071,2010,2063,0263
1916,2061,2083,2076,0267
2006,2049,2179,2075,0272
2206,2051,2075,2050,0276
1970,2053,1902,2014,0280
1950,2061,1915,2036,0285
2212,2061,2085,2085,0289
2074,2071,2174,2117,0294
1915,2063,2030,2047,0298
2165,2056,1904,2021,0303
2144,2058,1986,2031,0307
1897,2073,2207,2125,0312
2075,2063,2122,2047,0316
2192,2057,1999,2021,0321
1926,2043,1916,2000,0326
1960,2035,2080,2053,0330
2193,2057,2133,2068,0335
2001,2066,2024,2058,0339
1923,2055,1919,2017,0344
2206,2069,1972,2045,0349
2088,2070,2125,2070,0353
1894,2056,2070,2048,0358
2124,2053,2008,2039,0362
2164,2058,2011,2044,0367
1896,2055,2112,2088,0371
2072,2072,2049,2068,0376
2221,2071,1922,2037,0381
1991,2088,1959,2046,0385
1997,2071,2179,2117,0390
2213,2062,2228,2085,0394
2020,2050,2069,2016,0398
1897,2034,1888,1968,0403
2175,2052,1915,2009,0407
2094,2066,2167,2106,0412
1875,2059,2143,2107,0416
2104,2057,2021,2038,0420
2186,2070,1939,2054,0425
1918,2065,2013,2056,0429
2036,2071,2162,2096,0433
2222,2069,2057,2042,0438
1982,2048,1960,2031,0442
1952,2047,2027,2037,0446
2184,2049,2125,2060,0451
2028,2050,2109,2060,0455
1907,2052,2012,2017,0459
2146,2046,1985,2033,0463
2116,2056,2085,2082,0467
1889,2063,2115,2071,0471
2090,2065,2028,2069,0475
2195,2059,1899,2034,0479
1930,2052,1920,2040,0483
1984,2038,2089,2041,0487
2209,2056,2098,2071,0491
2002,2069,1998,2027,0495
1958,2062,1953,2022,0499
2192,2057,2106,2087,0502
2087,2079,2253,2112,0506
1902,2068,2151,2093,0510
2147,2064,2016,2042,0514
2154,2056,2030,2054,0518
1877,2042,2065,2055,0522
2061,2051,2095,2066,0526
2226,2076,1873,2014,0529
1966,2068,1817,1989,0533
2012,2079,1959,2034,0537
2192,2052,2194,2120,0541
2000,2059,2132,2070,0545
1927,2048,1917,2000,0549
2193,2080,1914,2041,0553
2129,2094,2181,2110,0557
1907,2087,2335,2149,0561
2144,2076,2171,2086,0565
2173,2053,1990,2030,0569
1877,2028,1951,2044,0573
2013,2035,2056,2019,0577
2208,2043,1968,2018,0581
1986,2079,1910,2012,0586
2001,2106,2020,2101,0590
2287,2137,2237,2161,0595
2079,2100,2086,2111,0599
1905,2051,1891,2000,0604
2172,2049,1942,2011,0609
2097,2041,2205,2084,0613
1862,2036,2219,2045,0618
2070,2017,1972,1996,0623
2132,2005,1803,1959,0628
1832,1995,1976,2003,0633
1960,2017,2043,1994,0638
2182,2028,1884,1954,0643
1940,2029,1876,2000,0648
1919,2047,2080,2073,0653
2191,2055,2224,2116,0658
2054,2065,2137,2073,0663
1891,2046,1950,2015,0668
2161,2051,2005,2060,0673
2145,2067,2164,2074,0678
1898,2072,2009,2037,0683
2108,2070,1877,2013,0689
2235,2080,2012,2090,0694
1952,2082,2230,2123,0699
2028,2093,2354,2160,0705
2287,2125,2125,2120,0710
2066,2127,2038,2141,0715
2026,2133,2134,2136,0721
2292,2155,2292,2184,0727
2167,2149,2143,2123,0733
1974,2138,1839,2054,0739
2168,2075,1715,1995,0745
2111,2015,2018,2023,0751
1804,1978,2236,2038,0757
1945,1942,2025,1968,0763
2113,1958,1809,1922,0769
1862,1983,1815,1935,0775
1927,2013,2050,2029,0780
2168,2025,2175,2053,0786
2013,2048,2049,2037,0792
1915,2042,1852,2006,0798
2186,2056,2076,2070,0804
2098,2059,2182,2097,0810
1877,2050,2161,2032,0816
2095,2033,1902,1965,0821
2150,2031,1870,1987,0827
1890,2026,2030,2016,0833
2001,2043,2216,2083,0839
2220,2076,2206,2127,0845
1997,2072,2122,2080,0851
1982,2072,1867,2034,0856
2251,2074,1858,2036,0862
2082,2081,1930,2022,0868
1919,2078,2131,2060,0874
2175,2073,2184,2106,0879
2133,2068,1930,2038,0885
1879,2039,1822,1950,0891
2076,2048,2063,1998,0896
2191,2068,2337,2142,0902
1906,2058,2303,2128,0907
2001,2050,2037,2071,0913
2225,2060,1892,2009,0918
1996,2062,1956,2010,0923
1941,2068,2133,2070,0929
2227,2076,1919,2018,0934
2082,2080,1816,1964,0939
1903,2065,2066,2073,0945
2147,2063,2315,2135,0950
2153,2066,2268,2159,0955
1904,2069,1963,2059,0960
2092,2069,1863,2030,0965
2233,2069,2076,2076,0970
1955,2063,2107,2016,0975
1988,2057,2169,2085,0980
2252,2069,2040,2048,0985
2034,2066,1797,1998,0990
1937,2066,1913,2064,0994
2211,2075,2198,2084,0999
2117,2094,2248,2143,1003
1893,2081,2126,2105,1008
2126,2064,1833,1969,1013
2169,2046,1978,2048,1017
1893,2080,2277,2116,1022
2060,2076,2162,2100,1026
2231,2074,2036,2054,1031
1962,2060,1905,2003,1035
1961,2061,1922,2047,1039
2225,2062,2040,2061,1044
2031,2055,2007,2033,1048
1895,2054,2097,1983,1052
2194,2060,2206,2122,1056
2137,2080,2098,2094,1060
1897,2058,1952,2058,1065
2082,2046,1959,1992,1069
2155,2036,2263,2091,1073
1850,2022,2180,2060,1077
1984,2000,1829,1966,1081
2187,2005,1667,1912,1085
1920,2009,2058,2038,1089
1911,2035,2303,2093,1094
2194,2046,2174,2080,1098
2043,2048,1774,1958,1102
1860,2019,1804,2007,1106
2165,2064,2172,2076,1110
2146,2075,2170,2084,1113
1900,2076,1852,2020,1117
2098,2055,1857,1994,1121
2201,2066,2006,2060,1125
1919,2073,2345,2089,1128
1989,2065,2200,2128,1132
2226,2053,1980,2067,1136
1989,2048,2072,2056,1139
1938,2075,2280,2103,1143
2223,2087,2148,2039,1147
2109,2076,1812,1983,1151
1903,2067,1910,2041,1155
2156,2077,2200,2127,1159
2183,2085,2169,2105,1163
1924,2069,1905,2010,1167
2057,2049,1674,1963,1171
2203,2052,2042,2068,1175
1936,2045,2123,2070,1179
1950,2046,2022,2060,1182
2223,2047,2021,2061,1186
2018,2063,2054,2044,1190
1918,2074,2225,2064,1194
2208,2079,2233,2102,1197
2104,2064,2126,2079,1201
1890,2050,1925,2044,1205
2115,2043,1938,2028,1209
2192,2063,2087,2080,1213
1899,2068,2268,2093,1217
2009,2048,2001,2055,1221
2216,2045,1845,1999,1225
1955,2046,2031,2019,1229
1940,2054,2162,2054,1234
2213,2069,2141,2084,1238
2044,2057,1887,2047,1242
1890,2029,1775,1959,1246
2178,2058,2084,2080,1250
2126,2064,2252,2137,1254
1895,2070,2094,2103,1258
2092,2044,1990,2004,1262
2208,2054,1928,2006,1266
1926,2072,2155,2112,1270
2008,2066,2208,2100,1275
2223,2040,1783,1932,1279
1991,2039,1773,1953,1283
1932,2067,2300,2180,1287
2206,2077,2316,2168,1290
2096,2085,2011,2074,1294
1873,2028,1590,1883,1298
2151,2061,2114,2092,1302
2164,2080,2365,2134,1306
1911,2080,2166,2046,1310
2060,2049,1831,1997,1314
2232,2069,2103,2078,1317
1927,2059,2177,2105,1321
1996,2074,2180,2130,1325
2246,2049,1686,1952,1328
2015,2055,1908,2051,1332
1922,2077,2253,2155,1335
2204,2084,2214,2094,1339
2123,2079,2005,2044,1342
1867,2026,1715,1978,1346
2140,2062,2098,2076,1349
2163,2066,2305,2114,1352
1904,2064,2263,2096,1355
2027,2032,1755,2011,1358
2229,2052,1932,2060,1361
1936,2056,2091,2041,1364
1965,2058,2269,2034,1367
2191,2046,2029,2040,1370
2033,2046,1903,2027,1372
1856,2023,1969,2063,1375
2206,2090,2286,2083,1378
2119,2045,1989,1993,1380
1878,2072,2197,2112,1382
2102,2038,1982,2047,1385
2198,2054,1950,2047,1387
1878,2048,1767,1975,1389
2035,2062,2128,2093,1392
2218,2072,2178,2065,1394
1978,2089,2110,2067,1396
1912,2002,1552,1932,1398
2230,2072,2291,2146,1400
2056,2076,2424,2148,1402
1888,2063,2120,2023,1404
2150,2033,1833,2013,1406
2138,2040,1893,2007,1408
1858,2054,2334,2117,1410
2108,2089,2246,2184,1411
2238,2078,2025,2057,1413
1912,2063,2052,2069,1415
2001,2060,2175,2070,1417
2225,2047,1880,1997,1419
1986,2069,2104,2070,1421
1936,2062,1962,1998,1423
2187,2049,2004,2032,1425
2095,2061,2066,2086,1427
1883,2050,2026,2032,1429
2133,2044,1950,1995,1431
2169,2057,1990,2041,1432
1886,2037,1637,1941,1434
2048,2015,1793,2055,1435
2216,2072,2390,2067,1437
1947,2088,2441,2106,1438
1961,2076,2285,2108,1439
2237,2049,1604,1934,1440
2034,2039,1804,1996,1442
1904,2094,2444,2134,1443
2196,2093,2462,2183,1444
2110,2072,2105,2077,1446
1898,2054,1753,1999,1447
2099,2023,1608,1926,1448
2202,2075,2285,2145,1450
1907,2068,2178,2068,1451
2035,2071,2302,2101,1452
2234,2061,1981,2037,1453
1964,2052,1810,1996,1454
1953,2053,1932,2007,1455
2223,2067,2074,2048,1456
2048,2058,2001,2061,1457
1885,2047,1980,2034,1458
2182,2070,1954,2072,1458
2120,2057,1982,2048,1458
1895,2060,2225,2138,1459
2093,2056,2243,2065,1459
2185,2054,1957,1995,1459
1937,2085,2049,2053,1459
2003,2084,1967,2035,1459
2253,2104,2111,2111,1459
1997,2056,1932,2035,1459
1926,2063,1980,2023,1459
2218,2054,2138,2064,1458
2087,2079,2162,2086,1458
1887,2061,2099,2074,1458
2162,2064,1980,2066,1458
2169,2055,1901,2005,1458
1906,2068,2068,2066,1458
2077,2071,2084,2078,1457
2227,2092,2094,2066,1457
1946,2068,2043,2048,1456
1986,2053,1981,2039,1455
2228,2063,2001,2036,1455
2021,2074,1978,2047,1454
1902,2050,1916,2034,1452
2194,2058,2091,2054,1451
2101,2067,2214,2110,1449
1883,2068,2155,2070,1447
2137,2071,2070,2100,1445
2180,2067,1996,2052,1443
1893,2062,2057,2042,1441
2042,2058,2057,2029,1439
2216,2057,2027,2048,1436
1946,2051,2037,2060,1434
1950,2068,2052,2056,1431
2222,2055,2042,2049,1429
2033,2050,1965,2021,1427
1896,2049,1938,2030,1425
2177,2066,2096,2077,1422
2119,2061,2126,2079,1420
1890,2058,2138,2072,1417
2103,2060,2027,2033,1415
2200,2058,1954,2029,1412
1907,2052,1996,2030,1409
2000,2049,1969,2023,1406
2237,2082,2165,2128,1403
1978,2060,2096,2065,1400
1945,2072,2162,2112,1397
2217,2062,2006,2048,1394
2063,2065,2028,2066,1390
1887,2053,2016,2043,1387
2171,2056,2022,2043,1384
2131,2055,2065,2035,1381
1881,2055,2094,2061,1377
2076,2055,2072,2050,1374
2204,2057,2020,2043,1371
1921,2049,2008,2039,1367
1978,2048,2022,2037,1363
2229,2063,2052,2065,1359
2005,2059,2005,2048,1355
1921,2048,1927,2015,1351
2215,2062,2068,2079,1347
2098,2071,2099,2100,1342
1888,2073,2131,2092,1337
2143,2056,1975,2007,1331
2160,2048,1924,1994,1326
1887,2048,2086,2078,1321
2046,2056,2208,2148,1315
2218,2066,2156,2080,1310
1946,2064,2074,2048,1305
1952,2064,2026,2024,1300
2226,2058,2042,2048,1295
2024,2061,1989,2049,1290
1911,2055,1988,2031,1286
2187,2061,2035,2050,1281
2113,2061,2027,2048,1277
1884,2063,2031,2053,1272
2105,2062,2027,2044,1268
2190,2060,2015,2036,1263
1891,2053,2036,2046,1259
2037,2064,2029,2048,1254
2241,2074,2057,2082,1248
1964,2053,1895,2000,1243
1936,2043,1940,2014,1237
2194,2054,2147,2081,1231
2040,2059,2110,2087,1224
1887,2058,2122,2077,1218
2170,2079,2073,2086,1212
2135,2056,2074,2036,1206
1892,2055,2163,2084,1200
2091,2042,2045,2015,1194
2205,2055,2036,2037,1189
1922,2052,2047,2047,1184
1997,2043,1990,2030,1179
2221,2055,1987,2040,1175
2004,2062,2027,2052,1170
1942,2059,2023,2052,1166
2219,2062,2013,2051,1162
2085,2065,2034,2057,1158
1896,2058,2033,2049,1154
2141,2062,2036,2052,1149
2159,2057,1982,2023,1145
1882,2053,2002,2022,1140
2051,2058,2057,2078,1135
2202,2067,2111,2094,1129
1930,2058,2045,2062,1123
1978,2041,1870,1978,1117
2214,2049,1956,2018,1111
2012,2067,2176,2148,1104
1920,2060,2185,2085,1097
2189,2064,2200,2080,1090
2109,2061,2077,2034,1084
1890,2059,2064,2056,1077
2103,2057,2044,2055,1071
2190,2068,2006,2048,1065
1911,2062,2012,2041,1058
2023,2060,2033,2054,1052
2229,2063,2014,2051,1046
1983,2059,2005,2036,1040
1936,2048,2006,2034,1034
2181,2046,2005,2043,1028
2058,2061,2049,2049,1022
1911,2056,2065,2068,1015
2200,2057,2017,2043,1008
2151,2051,1931,2002,1001
1884,2052,1979,2044,0994
2068,2049,2109,2081,0986
2187,2054,2057,2079,0978
1915,2061,2051,2073,0970
2006,2058,2046,2049,0962
2214,2058,2116,2053,0954
1988,2048,2175,2060,0947
1953,2070,2128,2066,0939
2212,2074,2085,2080,0932
2085,2086,2045,2077,0925
1918,2079,2010,2052,0918
2170,2079,2023,2061,0911
2161,2079,2025,2062,0905
1876,2059,2012,2045,0899
2079,2053,2010,2041,0893
2227,2059,2025,2051,0886
1964,2067,2026,2060,0880
2031,2068,1984,2052,0874
2235,2060,1980,2038,0867
1994,2056,2047,2047,0861
1911,2040,2024,2016,0854
2164,2035,2026,2021,0847
2078,2040,1999,2029,0840
1878,2044,2047,2056,0833
2109,2047,2200,2129,0826
2161,2055,2177,2087,0819
1892,2042,2078,2048,0812
2028,2045,2016,2023,0805
2197,2055,2008,2034,0798
1951,2056,2045,2043,0792
1953,2058,2041,2042,0786
2188,2060,2021,2040,0780
2019,2056,2005,2040,0775
1924,2047,2000,2016,0769
2179,2049,2010,2038,0764
2128,2052,1981,2039,0758
1905,2057,1991,2043,0753
2105,2065,2050,2075,0747
2173,2070,2081,2065,0742
1936,2072,2021,2069,0736
2052,2077,2014,2066,0730
2237,2084,2060,2085,0724
1993,2075,2054,2052,0718
1956,2060,2001,2027,0712
2225,2064,2005,2046,0705
2059,2065,2159,2099,0699
1896,2054,2228,2119,0692
2145,2055,2146,2064,0685
2117,2043,1985,2028,0678
1878,2041,1983,2019,0672
2072,2050,2039,2031,0666
2196,2058,2044,2045,0659
1921,2057,2008,2023,0654
1993,2049,2008,2040,0648
2226,2070,2010,2056,0642
1992,2065,2017,2054,0637
1963,2073,2020,2054,0631
2196,2048,1954,2033,0626
2075,2062,2002,2050,0620
1903,2061,2040,2046,0615
2151,2067,2094,2060,0609
2168,2078,2072,2078,0604
1917,2083,2046,2075,0598
2072,2053,2051,2053,0592
2215,2072,2097,2062,0586
1940,2062,2100,2043,0580
2021,2096,2061,2086,0574
2249,2096,2059,2077,0568
2040,2074,2088,2077,0562
1906,2049,2129,2061,0556
2177,2053,2119,2060,0550
2079,2041,2044,2040,0544
1886,2044,2009,2038,0538
2078,2013,1971,2000,0532
2151,2037,1996,2033,0526
1915,2052,2021,2048,0520
2041,2063,2043,2055,0514
2216,2064,2036,2050,0508
2064,2135,2080,2114,0502
1992,2100,2054,2093,0497
2273,2112,2092,2129,0491
2058,2079,2037,2070,0485
1959,2092,2035,2086,0479
2153,2072,1977,2049,0473
2116,2055,2005,2049,0467
1910,2063,2101,2072,0461
2062,2028,2134,2042,0455
2151,2039,2115,2044,0449
1930,2056,2055,2048,0443
1971,2024,1948,2011,0437
2204,2060,2013,2039,0431
1983,2039,2049,2043,0425
1950,2040,2060,2028,0419
2182,2016,2022,2018,0413
2098,2037,2015,2029,0407
1879,2032,1998,2022,0401
2117,2045,2027,2049,0396
2098,2050,2016,2050,0390
1858,2063,2030,2056,0385
2039,2052,2031,2056,0379
2207,2079,2031,2058,0374
1906,2037,2001,2015,0369
2042,2096,2036,2071,0364
2200,2041,2060,2050,0359
2056,2086,2125,2099,0354
1944,2070,2073,2067,0349
2192,2074,2049,2070,0344
2094,2053,2033,2060,0339
1868,2015,2024,2024,0334
2156,2084,2040,2061,0330
2176,2072,2013,2057,0325
1914,2053,1999,2048,0320
2078,2073,2086,2083,0315
2203,2053,2086,2052,0310
1962,2057,2093,2070,0305
1996,2078,2065,2068,0300
2232,2077,2058,2070,0296
2068,2080,2060,2076,0291
1928,2072,2059,2076,0286
2183,2059,2034,2066,0281
2119,2063,2026,2057,0277
1871,2033,2020,2040,0272
2096,2050,2029,2043,0268
2197,2071,2060,2064,0263
1938,2076,2064,2070,0259
2036,2056,2043,2051,0255
2209,2060,2035,2051,0250
1987,2082,2048,2058,0246
1970,2075,2060,2060,0242
2206,2059,2046,2053,0237
2052,2059,2036,2037,0233
1892,2043,2026,2038,0229
2148,2058,2037,2048,0224
2128,2045,2040,2046,0220
1909,2071,2058,2064,0216
2045,2028,2020,2027,0212
2205,2066,2070,2073,0208
1952,2075,2040,2037,0204
1986,2037,2045,2053,0200
2193,2037,2002,2024,0196
1998,2065,2086,2100,0192
1938,2067,2010,2048,0188
2195,2063,2059,2073,0184
2079,2052,2034,2049,0180
1904,2066,2063,2073,0177
2143,2066,2059,2046,0173
2167,2064,2067,2059,0169
1938,2100,2114,2131,0166
2055,2060,2058,2077,0162
2238,2081,2081,2105,0159
1962,2059,2009,2016,0155
1977,2057,2052,2053,0152
2208,2072,2074,2086,0149
2019,2060,2038,2047,0146
1909,2052,2051,2046,0143
2167,2048,2039,2048,0140
2078,2040,2025,2045,0137
1888,2062,2037,2049,0134
2123,2068,2052,2052,0131
2172,2050,2038,2041,0128
1912,2056,2038,2050,0124
2068,2099,2062,2076,0121
2194,2055,2046,2043,0118
1992,2076,2041,2050,0114
1935,2027,2033,2041,0111
2223,2082,2054,2065,0107
2053,2064,2057,2041,0104
1909,2056,2061,2057,0101
2160,2065,2007,2013,0098
2112,2050,2033,2050,0095
1903,2062,2024,2028,0092
2129,2087,2060,2068,0089
2232,2096,2039,2055,0086
1932,2068,1976,1985,0083
1992,2050,2032,2076,0080
2201,2042,2039,2069,0077
1997,2071,2032,2070,0074
1923,2049,2041,2048,0071
2178,2042,2026,2024,0067
2072,2054,2053,2064,0063
1908,2063,2066,2074,0059
2168,2084,2073,2076,0055
2191,2099,2083,2073,0051
1916,2064,2064,2064,0047
2080,2079,2062,2069,0043
2222,2093,2066,2073,0039
1936,2039,2039,2047,0035
1948,2022,1989,1954,0031
2189,2039,2076,2056,0028
2015,2058,2041,2073,0024
1928,2061,2016,2058,0021
2180,2054,2027,2040,0019
2065,2021,1978,1998,0016
1890,2050,2054,2072,0013
2096,2036,2031,2063,0011
2154,2053,2051,2058,0008
1889,2041,2002,1998,0006
2020,2032,2000,2037,0003
2234,2090,2034,2070,0001
1981,2068,2080,2077,0001
2016,2104,2091,2089,0001
2192,2031,2049,2056,0001
2091,2106,2080,2064,0000
1889,2045,2042,2050,0000
2222,2097,2088,2093,0000
2148,2088,2076,2075,0000
1911,2069,2061,1987,0000
2085,2031,2018,1982,0000
2167,2031,1939,2002,0000
1891,2038,2020,2033,0000
2026,2056,2003,2073,0000
2232,2055,2023,2002,0000
1950,2032,2002,2053,0000
1934,2053,2035,2102,0000
2190,2039,2014,2021,0000
2058,2060,2058,2063,0000
1893,2052,2053,2054,0000
2158,2048,2057,2046,0000
2152,2055,2058,2052,0000
1897,2073,2065,2059,0000
2073,2058,2047,2050,0000
2275,2134,2088,2097,0000
1937,2082,2061,2066,0000
2006,2069,2048,2061,0000
2226,2054,2043,2050,0000
2005,2053,2047,2048,0000
1907,2046,2042,2044,0000
2223,2088,2054,2056,0000
2080,2053,2045,2039,0000
1890,2058,2041,2032,0000
2128,2048,2043,2054,0000
2163,2056,2034,2046,0000
1898,2060,2039,2061,0000
2048,2048,2018,2025,0000
2194,2041,2041,2037,0000
1951,2070,2041,2052,0000
1983,2060,2044,2060,0000
2223,2064,2055,2065,0000
2060,2090,2065,2069,0000
1917,2061,2051,2053,0000
2169,2054,2053,2054,0000
2145,2096,2069,2076,0000
1887,2054,2044,2053,0000
2101,2059,2044,2046,0000
2166,2049,2034,2043,0000
1895,2035,2016,2023,0000
2030,2052,2037,2038,0000
2216,2063,2038,2051,0000
1976,2057,2053,2070,0000
1949,2036,2012,2034,0000
2191,2035,2028,2042,0000
2053,2067,2048,2057,0000
1909,2057,2040,2051,0000
2168,2057,2043,2058,0000
2123,2052,2035,2046,0000
1882,2056,2022,2042,0000
2091,2055,2017,2047,0000
2187,2061,2039,2051,0000
1927,2063,2063,2064,0001
2007,2054,2069,2055,0001
2218,2057,2046,2057,0002
2015,2071,2035,2056,0003
1935,2056,2008,2043,0004
2200,2058,2080,2063,0005
2085,2072,2084,2053,0006
1889,2055,2103,2049,0008
2147,2056,2070,2047,0009
2154,2062,2037,2057,0011
1893,2049,2000,2048,0013
2080,2062,2004,2047,0015
2174,2029,2000,2033,0017
1952,2071,2064,2080,0020
2004,2072,2084,2070,0022
2225,2055,2032,2057,0025
2024,2070,2011,2048,0027
1936,2069,1999,2058,0030
2190,2063,2061,2068,0033
2104,2079,2082,2080,0036
1903,2068,1972,2025,0039
2135,2056,1884,1988,0042
2165,2058,1873,2023,0045
1905,2062,2121,2063,0048
2003,2027,2392,2155,0051
2211,2071,2370,2109,0055
1950,2061,2200,2083,0058
1974,2065,2032,2036,0062
2218,2057,1986,2047,0066
2029,2055,1988,2045,0070
1925,2072,1947,2044,0075
2185,2064,1947,2056,0080
2128,2072,2024,2062,0085
1896,2059,2012,2040,0090
2102,2052,1983,2032,0096
2186,2056,1964,2033,0101
1914,2055,2008,2061,0107
2005,2046,2112,2063,0112
2247,2086,2062,2065,0118
2017,2089,2021,2046,0123
1972,2086,1957,2064,0129
2218,2078,2091,2096,0134
2068,2078,2134,2084,0140
1938,2090,2097,2075,0145
2147,2056,1981,2052,0150
2124,2044,1996,2021,0156
1905,2063,2184,2077,0161
2045,2037,2168,2048,0166
2169,2042,1991,1995,0172
1898,2010,1924,1986,0177
1957,2015,1991,2005,0182
2174,2033,2132,2073,0187
2006,2054,2098,2077,0193
1911,2026,1973,2023,0198
2195,2060,1955,2046,0203
2088,2065,1946,2049,0208
1900,2056,1937,2045,0214
2160,2073,1908,2039,0219
2147,2054,1995,2026,0224
1885,2055,2079,2043,0229
2064,2062,2204,2067,0234
2178,2037,2160,2040,0239
1949,2042,2056,2022,0244
1946,2025,1996,2028,0249
2215,2073,2116,2090,0254
2007,2046,2144,2068,0259
1931,2064,1988,2031,0265
2172,2044,1792,1983,0270
2094,2059,1931,2048,0275
1912,2073,2142,2083,0281
2131,2077,2223,2105,0286
2210,2101,2032,2062,0292
1965,2108,1986,2094,0297
2081,2098,2129,2109,0303
2228,2090,2253,2125,0309
1973,2059,2168,2074,0315
1932,2036,1887,2002,0321
2188,2041,1901,2016,0327
2031,2036,2039,2016,0333
1920,2061,2187,2085,0340
2166,2060,2135,2064,0346
2141,2066,1965,2042,0353
1914,2064,1942,2044,0359
2077,2058,1967,2053,0366
2197,2073,2012,2063,0372
1914,2032,1958,2017,0379
2024,2061,1859,1984,0385
2226,2073,1922,2029,0392
2047,2128,2141,2117,0398
1999,2124,2464,2230,0404
2282,2155,2355,2186,0410
2160,2148,2112,2140,0417
1996,2142,1952,2091,0423
2155,2061,2029,2071,0429
2131,2048,2079,2054,0435
1892,2056,2040,2038,0442
2063,2062,1981,2023,0448
2168,2033,2130,2033,0455
1913,2023,2233,2073,0461
1916,1982,2010,1996,0468
2157,2001,1841,1967,0474
2030,2060,1856,2022,0481
1900,2028,1968,2019,0487
2122,1999,2108,2039,0494
2048,1996,2029,2015,0500
1871,2010,1894,1978,0506
2090,2030,1881,2009,0512
2133,2030,2027,2015,0518
1909,2074,2179,2103,0524
2023,2076,2055,2044,0530
2218,2075,1954,2032,0536
1965,2047,1993,2048,0542
1937,2045,2098,2065,0548
2231,2103,2126,2098,0553
2065,2081,2105,2066,0559
1911,2051,2132,2070,0564
2166,2048,2101,2060,0569
2099,2039,2040,2056,0575
1901,2058,1980,2050,0580
2110,2072,2095,2074,0585
2197,2068,2101,2074,0590
1915,2050,2008,2028,0595
2016,2039,1964,2013,0600
2215,2048,2049,2047,0605
1974,2046,2019,2040,0610
1937,2045,1801,2014,0615
2213,2063,1951,2058,0620
2062,2061,2116,2091,0625
1895,2057,2238,2097,0630
2160,2058,1921,2004,0635
2140,2052,1926,2056,0640
1907,2080,2199,2070,0645
2046,2047,2480,2114,0651
2240,2109,2295,2110,0656
1948,2075,1931,2038,0662
2015,2072,1871,2046,0667
2247,2065,1846,2026,0673
2022,2074,1977,2051,0679
1939,2077,2074,2098,0685
2209,2076,2061,2072,0691
2101,2071,2153,2093,0697
1871,2062,2195,2112,0702
2125,2059,2186,2075,0708
2164,2065,1942,2040,0714
1903,2051,1774,1993,0720
2053,2053,1974,2046,0726
2204,2054,2150,2080,0732
1936,2038,2031,2024,0738
1972,2055,2020,2014,0743
2221,2073,1852,1994,0749
2033,2050,1888,2051,0755
1902,2041,1945,2085,0760
2161,2048,2281,2129,0766
2127,2079,2545,2171,0772
1910,2068,2079,2038,0778
2136,2059,1899,2022,0785
2189,2071,2104,2051,0791
1906,2066,2380,2138,0799
2018,2060,2217,2103,0806
2215,2061,1918,2047,0813
1962,2056,1817,1988,0821
1961,2054,1899,2012,0828
2240,2074,1965,2064,0836
2060,2084,2006,2080,0843
1933,2068,2086,2074,0851
2174,2065,2031,2023,0858
2139,2056,1883,2047,0865
1890,2049,1936,2010,0871
2081,2043,2062,2028,0877
2178,2054,2164,2085,0884
1919,2057,2146,2040,0890
2007,2058,1867,1985,0895
2234,2056,1913,2008,0901
1997,2058,2145,2036,0907
1926,2057,2293,2132,0913
2204,2074,2159,2089,0918
2080,2072,1983,2073,0924
1887,2055,1911,2041,0930
2140,2064,2058,2050,0936
2145,2062,2147,2090,0942
1889,2062,2062,2064,0948
2054,2056,1748,1994,0953
2196,2047,1932,2014,0959
1929,2059,2212,2076,0965
1967,2054,2295,2079,0971
2211,2052,1936,2000,0976
2012,2052,1673,1946,0982
1895,2045,2074,2052,0987
2185,2068,2334,2111,0992
2092,2061,2168,2116,0997
1893,2056,1718,2002,1002
2109,2036,1887,2020,1007
2161,2050,2223,2034,1012
1888,2049,2388,2100,1017
2036,2046,2014,2026,1022
2230,2058,1769,1996,1027
1953,2048,2073,2083,1032
1955,2054,2216,2091,1037
2212,2058,2203,2094,1042
2040,2056,2020,2065,1047
1908,2046,1897,2004,1051
2184,2059,1951,2037,1056
2127,2061,1951,2030,1061
1869,2051,1821,2056,1065
2107,2070,1857,2021,1070
2183,2077,2159,2092,1074
1912,2071,2237,2061,1078
2050,2059,2247,2062,1082
2249,2089,2125,2094,1086
2018,2089,1984,2084,1090
1963,2077,2159,2086,1095
2222,2066,1875,1987,1099
2073,2070,2095,2067,1103
1884,2054,2333,2186,1107
2175,2072,2170,2090,1112
2153,2059,1743,1943,1117
1809,2039,1928,2010,1121
2092,2067,2236,2131,1126
2242,2079,2309,2124,1130
1955,2062,1843,1994,1135
2008,2023,1701,1956,1139
2220,2075,2203,2112,1144
1997,2070,2283,2130,1148
1924,2051,1762,2013,1153
2217,2027,1759,1949,1157
2050,2028,2144,2024,1161
1829,2043,2381,2112,1165
2121,2049,2120,2076,1170
2151,2026,1568,1949,1174
1874,2045,1892,2006,1178
2047,2059,2406,2137,1182
2210,2075,2324,2137,1186
1948,2059,1666,1971,1191
1967,2034,1755,1992,1195
2215,2062,2316,2121,1199
2020,2059,2430,2113,1203
1916,2061,2210,2078,1208
2175,2032,1471,1882,1212
2124,2076,1956,2054,1217
1874,2060,2314,2128,1221
2128,2088,2345,2164,1225
2188,2061,1822,1983,1229
1910,2048,1740,1991,1233
2048,2082,2101,2081,1237
2226,2084,2129,2092,1241
1974,2065,1900,2027,1245
1984,2059,2145,2055,1249
2216,2084,2174,2095,1253
2076,2096,2322,2107,1257
1924,2073,2101,2084,1260
2180,2065,1914,2036,1264
2149,2069,2116,2093,1268
1913,2081,2103,2065,1272
2103,2062,1915,2007,1276
2203,2058,1879,2018,1279
1940,2076,2016,2105,1283
1977,2065,1994,2028,1287
2268,2095,2032,2096,1290
2041,2098,2162,2101,1293
2010,2122,2104,2097,1297
2278,2102,2124,2117,1300
2113,2103,2268,2132,1303
1909,2074,2176,2078,1306
2139,2051,2019,2031,1310
2157,2046,1757,2016,1313
1859,2014,1577,1943,1316
2037,2045,2316,2124,1319
2180,2062,2438,2125,1322
1897,2035,2207,1989,1326
1942,2007,1744,1902,1329
2131,2015,1731,1989,1332
2003,2080,2368,2189,1335
2008,2099,2355,2192,1339
2257,2105,2157,2123,1342
2183,2066,1553,1917,1345
1904,2071,1893,2026,1348
2140,2101,2342,2183,1352
2144,2039,2247,2074,1355
1795,1932,1871,1901,1358
1855,1847,1383,1727,1361
2039,1902,1881,1899,1364
1822,1961,2258,2036,1367
1872,1954,1907,1980,1370
2068,1891,1278,1733,1373
1974,2004,2162,2024,1375
1863,2040,2543,2156,1378
2171,2064,2370,2106,1381
2096,2031,1535,1925,1384
1901,2052,1854,2008,1387
2110,2106,2454,2171,1390
2235,2131,2458,2182,1392
1947,2049,1545,1861,1395
2020,2042,1661,2017,1398
2238,2120,2343,2186,1401
2047,2120,2380,2213,1404
2002,2100,2180,2098,1407
2243,2064,1840,1971,1409
2064,2051,1710,1942,1412
1931,2091,2204,2140,1415
2184,2104,2166,2145,1417
2176,2088,1897,2102,1420
1861,2002,1665,1972,1422
2128,2128,2391,2153,1424
2239,2113,2448,2194,1426
1977,2134,2464,2181,1428
2011,2029,1253,1814,1430
2209,2020,1802,1943,1432
2006,2111,2562,2178,1434
1961,2096,2491,2183,1436
2241,2087,2154,2112,1438
2089,2043,1712,1974,1440
1866,2052,1985,2006,1441
2126,2061,2077,2057,1443
2173,2050,1879,1998,1444
1885,2027,1577,1918,1446
2042,2052,2178,2072,1447
2208,2073,2211,2112,1448
1941,2078,2342,2106,1449
2000,2060,2017,2061,1450
2230,2060,1819,2019,1451
2026,2069,2122,2126,1452
1917,2057,2066,2075,1452
2177,2048,1982,2011,1453
2110,2065,2182,2058,1453
1895,2071,2180,2111,1454
2111,2066,2117,2075,1454
2186,2059,1925,2012,1454
1917,2048,1950,2001,1454
2021,2049,2035,2065,1455
2226,2064,2047,2068,1455
1981,2063,2026,2035,1455
1936,2058,1977,2007,1455
2232,2065,2093,2082,1455
2046,2056,1992,2046,1455
1914,2096,2095,2100,1454
2172,2058,1963,2024,1454
2136,2064,1958,2061,1454
1896,2060,1904,2032,1454
2087,2071,2197,2086,1453
2208,2087,2265,2083,1452
1925,2068,2219,2088,1452
2005,2064,2028,2053,1451
2221,2066,1940,2050,1450
2013,2072,2068,2059,1448
1936,2068,2069,2049,1447
2215,2077,2042,2073,1446
2085,2063,2026,2048,1444
1896,2060,2009,2037,1443
2142,2060,2056,2061,1441
2160,2066,2040,2052,1440
1885,2044,1966,2026,1438
2044,2042,2014,2037,1436
2210,2062,2050,2061,1434
1939,2055,2057,2061,1432
1986,2046,2019,2036,1430
2215,2043,1723,1930,1427
2002,2042,2067,2115,1424
1916,2068,2262,2125,1421
2191,2069,2224,2117,1418
2107,2077,2151,2084,1414
1895,2060,1941,1991,1411
2124,2062,2054,2060,1407
2182,2071,2027,2053,1404
1876,2061,1997,2049,1400
2039,2066,2102,2070,1397
2249,2064,2136,2076,1393
1969,2064,2058,2050,1390
1985,2055,1972,2039,1386
2225,2064,2037,2058,1383
2024,2065,2049,2053,1379
1894,2057,2021,2045,1375
2186,2058,2023,2047,1371
2115,2057,2027,2038,1367
1873,2046,1981,2019,1363
2104,2057,2034,2067,1358
2177,2055,2024,2063,1353
1925,2058,1934,2014,1347
1999,2061,2047,2062,1341
2225,2080,2077,2059,1335
1959,2062,2110,2111,1328
1920,2048,1929,2016,1322
2181,2050,2079,2041,1315
2048,2055,2214,2088,1308
1881,2051,2199,2069,1302
2151,2054,2026,2044,1295
2148,2060,1980,2030,1289
1848,2055,2055,2047,1283
2076,2058,2049,2063,1277
2210,2056,1982,2031,1271
1959,2062,2034,2051,1265
2028,2076,2054,2064,1259
2253,2074,2028,2060,1253
2008,2076,2029,2060,1247
1933,2061,2009,2042,1241
2210,2074,2040,2064,1235
2107,2084,2088,2096,1228
1897,2053,1931,2001,1221
2127,2050,1979,2030,1213
2154,2058,2110,2091,1206
1893,2060,2197,2109,1198
2026,2050,2162,2078,1190
2226,2054,2062,2048,1182
1949,2056,2048,2068,1175
1988,2057,2066,2063,1167
2223,2048,2018,2028,1160
2015,2044,2005,2011,1154
1891,2046,2025,2033,1147
2200,2056,2026,2040,1141
2101,2055,2021,2034,1134
1874,2043,2012,2035,1128
2110,2044,2013,2034,1122
2163,2046,2013,2031,1116
1911,2045,1993,2018,1109
2017,2048,2036,2058,1103
2225,2069,2046,2064,1096
1984,2073,2039,2054,1089
1984,2081,2016,2071,1081
2242,2080,2006,2066,1073
2062,2082,1990,2052,1065
1880,2065,2127,2079,1056
2184,2065,2195,2091,1047
2133,2059,2141,2077,1039
1893,2056,2104,2071,1030
2086,2046,2031,2052,1022
2204,2064,2090,2052,1014
1922,2056,2065,2047,1007
1999,2054,2012,2035,1000
2214,2064,1994,2040,0993
1978,2057,2000,2029,0987
1946,2053,2009,2037,0980
2212,2076,2023,2056,0974
2075,2077,2033,2057,0968
1883,2044,2019,2039,0962
2132,2039,2010,2031,0956
2136,2045,2013,2046,0949
1903,2058,1999,2036,0943
2065,2050,1995,2021,0936
2196,2052,1999,2031,0929
1944,2072,2059,2096,0921
1992,2058,2046,2086,0914
2229,2059,2013,2047,0905
1993,2044,2135,2094,0897
1909,2050,2170,2053,0889
2184,2056,2229,2107,0881
2104,2058,2091,2049,0873
1893,2056,2038,2044,0865
2124,2059,2002,2042,0858
2166,2064,2009,2056,0851
1888,2054,1995,2035,0845
2031,2053,1989,2038,0838
2230,2059,2011,2045,0832
1971,2056,2010,2037,0826
1968,2052,2012,2039,0820
2209,2055,2016,2063,0814
2035,2048,2034,2060,0809
1905,2057,2011,2050,0803
2187,2069,2024,2062,0797
2123,2075,2030,2070,0790
1890,2060,1996,2036,0784
2136,2064,2057,2051,0777
2166,2042,2061,2045,0771
1904,2048,2075,2057,0763
2018,2054,2059,2061,0756
2216,2061,2060,2059,0749
1978,2061,2106,2075,0741
1923,2057,2120,2068,0734
2198,2066,2125,2091,0726
2072,2067,2075,2062,0719
1912,2063,2026,2048,0712
2188,2069,2021,2054,0705
2159,2064,2001,2048,0698
1911,2048,2001,2038,0692
2081,2052,2016,2041,0685
2206,2067,2020,2055,0679
1916,2054,2009,2044,0672
1984,2060,1994,2045,0666
2226,2064,2000,2050,0659
1982,2041,2018,2047,0653
1924,2060,1982,2055,0646
2193,2047,2013,2038,0639
2109,2082,2055,2076,0632
1911,2085,2068,2049,0625
2174,2075,2166,2105,0617
2162,2060,2186,2116,0610
1899,2061,2170,2079,0603
2061,2052,2133,2079,0595
2225,2068,2051,2066,0589
1956,2066,2023,2060,0582
1990,2062,2019,2055,0576
2207,2057,2005,2037,0569
2013,2061,2007,2040,0564
1895,2043,1990,2029,0558
2171,2046,1992,2024,0553
2081,2036,1999,2020,0547
1881,2028,1994,2020,0542
2099,2042,2010,2030,0537
2167,2046,2014,2040,0532
1892,2033,2017,2035,0528
2014,2042,2032,2045,0523
2200,2042,2028,2045,0518
1948,2040,2006,2034,0513
1980,2057,2043,2059,0509
2178,2045,1995,2017,0504
2068,2087,2022,2068,0499
1916,2078,2027,2070,0494
2154,2060,2022,2060,0489
2170,2081,2040,2067,0483
1889,2058,2069,2059,0478
2106,2075,2196,2084,0473
2214,2063,2214,2071,0467
1920,2049,2141,2037,0461
2000,2057,2055,2052,0456
2223,2059,2000,2052,0451
2003,2062,2020,2058,0445
1947,2066,2011,2058,0440
2207,2065,2036,2065,0435
2090,2073,2059,2078,0430
1902,2055,2048,2048,0425
2138,2055,2022,2039,0420
2138,2051,2010,2042,0415
1910,2073,2041,2065,0410
2070,2071,2042,2062,0405
2199,2048,2030,2051,0401
1931,2047,2021,2040,0396
1969,2038,2023,2040,0392
2219,2066,2045,2062,0387
2025,2066,2046,2061,0383
1920,2054,2038,2051,0378
2175,2051,2036,2042,0374
2087,2048,2036,2047,0369
1877,2041,2026,2038,0365
2123,2068,2046,2060,0361
2172,2058,2045,2058,0356
1896,2036,2026,2040,0352
2027,2048,2023,2042,0347
2198,2062,2035,2051,0343
1997,2088,2073,2088,0338
1987,2092,2076,2083,0334
2228,2074,2062,2071,0329
2037,2076,2044,2051,0325
1881,2028,2022,2029,0320
2153,2044,2027,2024,0315
2128,2072,2060,2069,0311
1900,2071,2051,2060,0306
2088,2048,2032,2043,0302
2135,2026,2009,2024,0297
1916,2055,2035,2042,0292
2018,2064,2046,2062,0288
2206,2049,2042,2050,0283
1978,2047,2040,2042,0278
1940,2053,2042,2054,0274
2209,2072,2055,2066,0269
2073,2064,2056,2068,0264
1919,2066,2054,2066,0259
2145,2052,2041,2052,0255
2148,2069,2056,2066,0250
1914,2063,2063,2075,0246
2084,2053,2045,2061,0241
2202,2064,2054,2066,0237
1937,2059,2042,2057,0232
2001,2056,2048,2055,0228
2200,2039,2002,2009,0224
2016,2069,2080,2108,0220
1932,2061,2005,2002,0216
2206,2065,2099,2108,0212
2081,2048,1973,1999,0208
1873,2043,2053,2082,0205
2109,2038,1994,2024,0201
2156,2054,2031,2044,0197
1897,2062,2031,2052,0194
2039,2039,2025,2033,0191
2200,2057,2058,2065,0187
1946,2058,2033,2035,0184
1988,2068,2055,2065,0181
2227,2072,2058,2068,0178
2034,2084,2065,2075,0175
1910,2055,2048,2049,0173
2193,2064,2059,2060,0170
2108,2058,2051,2045,0168
1887,2058,2060,2045,0166
2132,2077,2063,2067,0163
2180,2080,2041,2055,0162
1907,2071,2027,2049,0160
2020,2043,2021,2017,0158
2197,2044,2046,2055,0157
1963,2060,2068,2060,0155
1965,2069,2038,2068,0154
2208,2054,2029,2045,0152
2062,2080,2055,2056,0151
1895,2047,2046,2037,0150
2183,2078,2072,2075,0148
2133,2056,2026,2030,0147
1901,2072,2049,2042,0145
2106,2069,2050,2057,0144
2202,2067,2040,2052,0142
1930,2069,2053,2062,0140
2023,2071,2047,2039,0138
2235,2065,2034,2056,0136
1982,2058,2065,2075,0134
1931,2048,2041,2055,0132
2212,2064,2063,2051,0129
2052,2059,2058,2053,0127
1918,2077,2061,2079,0124
2154,2074,2061,2069,0121
2154,2060,2025,2003,0118
1884,2035,2037,2030,0116
2045,2045,2014,2044,0113
2200,2068,2057,2104,0110
1944,2066,2032,2062,0107
1978,2056,2013,2033,0104
2220,2080,2070,2074,0101
2026,2074,2046,2070,0098
1931,2069,2061,2073,0095
2208,2074,2058,2081,0091
2065,2036,2026,2043,0088
1862,2025,2007,2012,0084
2103,2033,2026,2028,0081
2164,2053,2050,2054,0077
1901,2056,2048,2050,0073
2053,2057,2042,2048,0070
2210,2066,2051,2056,0066
1927,2034,2035,2046,0063
1966,2054,2050,2046,0059
2209,2052,2028,2013,0056
2044,2071,2119,2121,0054
1885,2035,1998,1948,0051
2172,2056,2077,2101,0049
2110,2055,2015,2057,0047
1890,2052,2022,2066,0045
2109,2051,2036,2068,0043
2176,2052,2028,2026,0041
1913,2058,2050,2065,0039
2019,2057,2043,2062,0037
2216,2054,2053,2050,0035
1988,2071,2066,2062,0033
1976,2069,2063,2072,0030
2223,2073,2061,2070,0028
2064,2069,2053,2064,0026
1905,2077,2071,2077,0024
2140,2047,2023,2024,0022
2198,2108,2073,2052,0020
1898,2066,2071,2060,0018
2087,2063,2044,1998,0017
2179,2032,2091,2057,0015
1914,2044,1953,2054,0013
1978,2045,2009,2105,0012
2215,2056,1997,2071,0010
1987,2043,2047,2059,0009
1913,2044,2045,2043,0007
2185,2047,2035,2063,0005
2076,2047,2036,2036,0003
1885,2048,2059,2044,0001
2124,2058,2052,2057,0001
2181,2079,2058,2065,0001
1899,2061,2034,2024,0001
2055,2049,2057,2074,0000
2200,2043,1999,1998,0000
1948,2056,2052,2036,0000
1980,2062,2067,2055,0000
2218,2059,2032,2052,0000
2022,2065,2052,2105,0000
1910,2064,2042,2080,0000
2187,2066,2045,2049,0000
2128,2070,2068,2076,0000
1882,2053,2042,2049,0000
2128,2065,2052,2054,0000
2188,2068,2055,2058,0000
1909,2061,2050,2051,0000
2031,2048,2047,2049,0000
2216,2058,2044,2042,0000
1947,2045,2014,2025,0000
1986,2080,2058,2067,0000
2199,2055,2032,2040,0000
2080,2083,2054,2053,0000
1882,2030,2026,2019,0000
2172,2068,2033,2047,0000
2130,2053,2063,2073,0000
1886,2057,2026,2037,0000
2093,2053,2047,2052,0000
2183,2067,2071,2091,0000
1943,2075,2039,2054,0000
2011,2054,2047,2062,0000
2234,2072,2057,2061,0000
1995,2064,2054,2058,0000
1933,2049,2046,2057,0000
2233,2069,2057,2068,0000
2078,2069,2049,2055,0000
1897,2060,2042,2055,0000
2162,2071,2017,2056,0000
2158,2064,2007,2049,0000
1890,2061,2001,2045,0000
2082,2050,2034,2055,0001
2202,2060,2087,2069,0001
1932,2052,2113,2058,0002
1995,2064,2101,2059,0003
2257,2078,2087,2068,0004
2019,2064,2049,2060,0005
1920,2061,2036,2047,0007
2195,2053,2030,2045,0009
2084,2054,2024,2042,0011
1890,2050,2026,2041,0013
2135,2059,2034,2048,0016
2159,2058,2031,2042,0018
1927,2078,2054,2061,0021
2044,2057,1981,2036,0024
2213,2068,1960,2039,0027
1975,2064,1942,2044,0030
1972,2061,2025,2075,0034
2221,2065,2134,2094,0037
2030,2054,2148,2057,0041
1906,2044,2079,2029,0044
2172,2054,2016,2032,0048
2118,2076,2025,2064,0051
1893,2050,2124,2065,0055
2100,2043,2145,2046,0059
2178,2049,2058,2032,0063
1914,2056,1982,2024,0066
2004,2037,1941,2027,0070
2214,2052,2034,2054,0074
1976,2068,2127,2109,0078
1946,2064,2062,2079,0082
2212,2061,2008,2057,0086
2060,2062,1960,2040,0089
1896,2056,2039,2057,0093
2153,2058,2074,2054,0097
2120,2049,2065,2047,0101
1915,2085,1976,2036,0105
2095,2059,1918,2018,0109
2217,2076,1951,2046,0113
1950,2073,2133,2095,0117
2010,2068,2211,2105,0121
2239,2079,2077,2045,0125
2023,2076,1967,2032,0129
1945,2078,1960,2023,0133
2197,2074,2198,2144,0137
2084,2073,2179,2101,0141
1890,2055,2115,2085,0146
2143,2056,2031,2044,0150
2156,2052,2047,2050,0155
1906,2058,2036,2042,0159
2057,2053,1959,2024,0164
2208,2061,1886,2013,0170
1946,2050,1950,2032,0175
1993,2064,2142,2099,0180
2214,2055,2119,2071,0186
2021,2056,2007,2014,0191
1900,2032,1907,2007,0197
2149,2035,2011,2015,0202
2084,2050,2231,2117,0208
1892,2051,2156,2051,0214
2098,2047,2078,2056,0220
2168,2052,1964,2022,0225
1909,2048,1940,2009,0231
2026,2045,1935,2021,0237
2223,2061,1946,2037,0243
1981,2053,2033,2068,0249
1950,2058,2065,2079,0255
2203,2061,2105,2073,0261
2057,2082,2217,2125,0267
1918,2062,2144,2079,0273
2181,2070,2040,2057,0279
2124,2053,1927,2021,0285
1882,2049,1990,2032,0291
2074,2047,2064,2033,0297
2167,2042,2019,2012,0303
1928,2052,2022,2018,0310
2007,2052,2102,2066,0316
2218,2075,2076,2100,0322
2008,2072,2023,2078,0329
1950,2057,1946,2032,0335
2220,2078,2080,2101,0341
2102,2098,2096,2090,0348
1927,2088,2075,2092,0354
2182,2092,2054,2068,0360
2154,2085,2136,2076,0367
1937,2097,2175,2075,0373
2123,2112,2124,2089,0380
2229,2097,1999,2049,0386
1954,2066,1921,2046,0393
1974,2030,2046,2055,0399
2163,2014,2093,2074,0406
1984,2017,2028,2012,0412
1883,2006,1906,1985,0419
2158,2032,1928,1989,0426
2054,2031,2110,2048,0432
1877,2039,2085,2049,0439
2115,2036,1981,2018,0445
2148,2049,1932,2018,0452
1904,2066,2080,2064,0459
2081,2092,2144,2097,0465
2220,2081,2109,2091,0472
1968,2076,2096,2094,0479
1983,2061,2087,2065,0486
2219,2063,2041,2051,0492
2042,2071,1961,2040,0499
1933,2060,1938,2010,0506
2181,2063,2145,2067,0513
2129,2078,1983,2049,0520
1887,2064,1934,2049,0527
2116,2073,1956,2053,0533
2204,2059,2123,2078,0540
1903,2048,2089,2055,0547
2026,2049,2044,2054,0554
2226,2069,2114,2064,0561
1973,2073,2234,2039,0567
1963,2065,2141,2052,0574
2208,2057,2032,2068,0581
2043,2055,1982,2055,0588
1889,2048,2091,2062,0595
2151,2054,2010,2015,0602
2136,2056,1921,2023,0609
1900,2053,1798,1993,0616
2090,2056,1809,2007,0623
2178,2046,2060,2054,0630
1967,2063,2271,2116,0636
2016,2050,2162,2073,0643
2223,2058,1989,2031,0650
1991,2063,2015,2036,0657
1900,2047,2241,2105,0663
2159,2054,2024,2067,0670
2063,2055,1842,2015,0677
1873,2042,1901,2006,0684
2109,2044,2308,2131,0691
2136,2063,2180,2044,0699
1904,2043,1971,2019,0706
2049,2063,1970,2028,0713
2190,2067,2078,2102,0720
1933,2057,2169,2096,0727
1977,2042,2000,2017,0734
2196,2048,1956,2031,0742
2037,2057,1941,2009,0749
1943,2059,1914,2031,0756
2202,2062,1950,2030,0763
2115,2073,2163,2137,0770
1905,2065,1934,2046,0777
2118,2064,2136,2086,0784
2190,2074,2255,2104,0791
1921,2064,2255,2059,0798
2037,2060,2117,2054,0805
2216,2064,1796,1968,0812
1973,2062,1898,2025,0820
1970,2078,2066,2079,0827
2191,2065,1944,2023,0834
2069,2066,2020,2028,0841
1876,2049,2191,2055,0848
2154,2056,2285,2164,0855
2124,2071,2168,2106,0862
1892,2059,1833,1996,0869
2088,2052,1930,2013,0876
2206,2062,2204,2126,0883
1914,2053,2108,2086,0891
2013,2052,1925,2008,0898
2226,2066,1912,1999,0905
1992,2063,2105,2066,0911
1956,2062,1930,2021,0918
2196,2045,1815,1992,0925
2039,2052,1878,1993,0931
1912,2065,2322,2131,0938
2149,2083,2464,2187,0944
2164,2078,1892,2035,0951
1917,2059,1899,2026,0957
2079,2058,2020,2014,0963
2203,2074,2254,2090,0969
1939,2071,2107,2082,0975
2018,2065,1718,1978,0981
2204,2067,1968,2097,0987
2022,2090,2210,2081,0993
1943,2071,2091,2063,0999
2199,2073,2104,2024,1005
2082,2060,2234,2143,1011
1874,2060,2116,2085,1017
2106,2061,1967,2038,1023
2174,2055,1761,1986,1029
1903,2044,1901,2005,1034
2059,2049,2138,2092,1040
2200,2046,1983,2023,1046
1954,2064,2122,2041,1051
1968,2060,2206,2080,1057
2221,2079,1996,2084,1062
2025,2056,2055,2093,1067
1923,2055,2088,2035,1073
2179,2061,2105,2045,1078
2112,2047,1873,1977,1084
1879,2044,1843,2011,1089
2093,2051,2280,2155,1095
2188,2062,2184,2073,1100
1909,2046,2003,2038,1105
2026,2034,1820,1959,1111
2192,2046,1900,2047,1116
1967,2060,2232,2127,1121
1957,2056,1890,1992,1126
2206,2038,1967,1993,1131
2067,2076,2247,2111,1136
1898,2055,2185,2095,1141
2172,2060,1966,2059,1146
2122,2033,1718,1977,1151
1877,2051,2004,2057,1156
2100,2068,2213,2089,1161
2201,2055,2142,2048,1166
1952,2047,1895,2034,1171
1997,2052,1870,1996,1176
2209,2084,2295,2133,1181
1953,2057,2209,2079,1186
1950,2039,1935,2007,1191
2215,2068,2133,2084,1196
2092,2068,1971,2062,1201
1890,2045,1777,1948,1206
2126,2048,1978,2015,1210
2164,2070,2253,2092,1215
1898,2063,2134,2111,1220
2057,2048,1767,1982,1225
2232,2070,1930,1994,1229
1936,2075,2375,2124,1234
1992,2092,2478,2155,1239
2231,2052,1896,1998,1243
2025,2047,1685,1955,1248
1896,2048,1978,2036,1252
2200,2082,2253,2187,1257
2115,2071,1965,2056,1261
1916,2050,1919,1998,1266
2135,2071,1839,2005,1270
2153,2050,2160,2070,1275
1930,2078,2311,2092,1279
2032,2037,1836,1942,1283
2177,2044,1869,1944,1287
1951,2074,2152,2102,1291
1997,2079,2292,2156,1296
2244,2094,2030,2097,1300
2070,2073,1564,1978,1304
1903,2051,1968,2060,1308
2143,2075,2532,2174,1312
2129,2069,2342,2091,1316
1874,2032,1796,1941,1320
2093,2039,1824,1989,1324
2170,2060,2094,2061,1328
1925,2070,2237,2121,1332
2019,2040,1707,1882,1335
2177,2039,1790,2006,1339
2003,2075,2338,2212,1343
1946,2080,2293,2161,1346
2240,2057,1999,2063,1350
2077,2047,1780,1952,1353
1877,2048,1922,2019,1356
2131,2072,2294,2096,1359
2188,2071,2080,2024,1363
1884,2047,1920,1966,1366
2063,2043,2084,2039,1369
2194,2065,2139,2118,1372
1939,2044,1888,2000,1375
1986,2059,2042,2085,1379
2230,2065,2123,2029,1382
1958,2048,2174,2052,1385
1925,2048,2142,2078,1388
2206,2069,2013,2036,1391
2129,2085,2032,2112,1394
1924,2050,1960,2034,1397
2142,2044,1861,2006,1400
2134,2016,1857,1960,1403
1907,2063,2033,2050,1405
2066,2042,2079,2111,1408
2233,2072,2035,2053,1410
1929,2042,1879,1979,1412
1955,2063,2335,2131,1415
2214,2072,2203,2105,1417
2024,2042,1879,1996,1419
1920,2066,2190,2144,1421
2207,2087,2069,2066,1423
2104,2089,2212,2149,1425
1882,2048,1913,1965,1428
2136,2042,1992,2002,1430
2188,2067,2137,2105,1432
1884,2049,1931,2039,1434
2061,2068,1920,2019,1436
2205,2055,1777,1923,1438
1965,2050,2074,2061,1440
1948,2079,2270,2090,1441
2197,2064,2158,2107,1443
2055,2077,2129,2065,1444
1890,2038,1870,1968,1446
2165,2031,1779,2006,1447
2075,2028,1986,2091,1448
1935,2104,2388,2174,1450
2073,2034,2057,2032,1451
2201,2092,2156,2070,1452
1945,2070,1915,2086,1453
2001,2059,2008,2066,1453
2223,2072,2275,2136,1454
2004,2061,2100,2055,1455
1929,2048,1912,2002,1456
2184,2043,1902,2031,1456
2065,2038,1944,1991,1457
1898,2054,2155,2101,1457
2143,2076,2072,2113,1458
2166,2072,1977,2077,1458
1901,2069,2058,2035,1458
2071,2063,2246,2091,1458
2196,2077,2099,2068,1458
1951,2065,2109,2096,1458
1985,2046,2000,2052,1458
2196,2052,2020,2036,1458
2031,2074,2128,2104,1458
1944,2073,2018,2067,1457
2199,2057,1899,2033,1457
2081,2059,2147,2076,1457
1889,2057,2075,2031,1456
2128,2075,2102,2037,1456
2174,2063,2017,2062,1456
1891,2061,2013,2067,1455
2022,2054,2037,2055,1454
2200,2057,1947,2026,1453
1990,2076,2095,2081,1452
1985,2074,2125,2057,1451
2250,2084,2145,2087,1450
2064,2072,1918,1990,1448
1928,2075,2033,2082,1447
2159,2066,2028,2036,1445
2132,2080,2192,2108,1443
1893,2060,2036,2060,1442
2094,2045,1938,2006,1440
2171,2048,2041,2044,1438
1915,2052,2030,2037,1435
2026,2063,2135,2092,1433
2211,2067,2039,2046,1431
1976,2058,1989,2055,1429
1968,2062,2015,2054,1426
2203,2055,2060,2041,1424
2063,2063,2054,2048,1421
1891,2063,2108,2057,1419
2127,2049,2026,2025,1416
2136,2066,2085,2072,1414
1920,2062,2056,2043,1411
2088,2068,1968,2043,1408
2202,2061,1959,2034,1406
1948,2078,2114,2081,1403
1986,2069,2075,2072,1399
2226,2065,2024,2048,1396
2034,2068,2015,2068,1393
1936,2052,2075,2086,1390
2192,2061,1965,2052,1386
2094,2056,2098,2055,1382
1884,2053,2105,2058,1379
2124,2068,2231,2094,1375
2145,2064,2118,2052,1371
1901,2047,1973,2015,1368
2040,2041,1976,2018,1364
2208,2064,2061,2060,1360
1952,2048,2014,2034,1356
1943,2051,2010,2044,1352
2199,2054,2027,2050,1348
2039,2067,2028,2053,1343
1902,2048,2011,2047,1339
2192,2060,2054,2084,1334
2093,2066,1973,2054,1329
1866,2042,2015,2039,1324
2102,2060,2084,2059,1319
2176,2074,2206,2100,1314
1918,2092,2170,2107,1308
2023,2057,2032,2034,1303
2202,2053,1900,2039,1298
1978,2060,2048,2072,1293
1937,2052,2129,2070,1288
2212,2051,2107,2059,1283
2043,2054,2061,2036,1278
1896,2051,1967,2030,1273
2170,2065,2024,2059,1269
2137,2061,2034,2049,1264
1892,2056,1994,2041,1259
2092,2057,2017,2048,1254
2200,2061,2047,2061,1250
1938,2065,2037,2056,1244
2010,2055,1967,2027,1239
2247,2070,2005,2053,1233
2015,2072,1984,2046,1227
1951,2073,2148,2111,1221
2222,2068,2136,2096,1214
2101,2075,2102,2055,1208
1900,2059,2091,2073,1201
2142,2056,2002,2025,1194
2142,2036,2022,2027,1187
1869,2040,2078,2060,1181
2041,2039,2109,2065,1174
2206,2053,2078,2071,1168
1941,2042,1999,2012,1162
1978,2039,1983,2020,1155
2200,2048,2018,2040,1149
1977,2055,2025,2034,1144
1942,2054,2018,2036,1138
2222,2079,2048,2069,1132
2125,2075,2030,2058,1126
1892,2066,1983,2036,1120
2102,2054,1984,2029,1114
2160,2055,2008,2051,1108
1909,2050,2084,2090,1101
2037,2042,1994,2005,1094
2206,2055,2152,2098,1087
1942,2048,2059,2019,1080
1953,2051,2118,2049,1073
2212,2061,2149,2084,1066
2033,2057,2080,2066,1059
1902,2059,2044,2056,1052
2182,2068,1997,2042,1045
2117,2057,1988,2033,1038
1836,2049,1996,2049,1032
2143,2060,2024,2052,1026
2202,2066,2040,2055,1019
1948,2062,2043,2063,1013
2033,2054,2003,2030,1007
2197,2061,2008,2035,1000
1970,2070,2041,2055,0994
1949,2062,1993,2042,0987
2231,2064,1984,2024,0980
2064,2060,2042,2055,0973
1892,2054,2130,2085,0965
2149,2060,2166,2105,0958
2153,2067,2116,2077,0950
1903,2065,2065,2059,0943
2088,2070,2053,2054,0935
2217,2059,2009,2039,0927
1926,2048,2033,2049,0920
1983,2049,2059,2049,0912
2223,2058,2074,2057,0904
2002,2054,2037,2045,0896
1908,2045,1995,2021,0889
2181,2049,2008,2040,0881
2082,2050,1992,2026,0872
1876,2038,1925,2024,0864
2134,2057,1935,2032,0856
2182,2062,2084,2065,0847
1892,2050,2128,2050,0839
2073,2056,2128,2049,0830
2215,2059,2053,2045,0821
1951,2052,2025,2027,0812
1971,2053,2148,2103,0803
2253,2072,2081,2068,0794
2024,2060,2038,2054,0785
1899,2049,2080,2069,0776
2185,2061,2069,2063,0768
2119,2070,2043,2067,0759
1895,2064,1989,2035,0751
2124,2072,2024,2053,0742
2196,2072,2056,2071,0734
1924,2074,2029,2051,0726
2039,2072,1983,2040,0718
2226,2068,2036,2066,0710
1989,2090,2049,2072,0702
1944,2053,1984,2030,0694
2268,2086,1988,2070,0686
2051,2062,2071,2068,0677
1904,2067,2128,2072,0669
2180,2067,2147,2075,0660
2106,2033,2046,2032,0652
1908,2064,2089,2055,0643
2112,2074,2126,2075,0635
2206,2073,2081,2073,0626
1925,2057,2008,2043,0618
1982,2034,1998,2032,0609
2183,2046,2026,2048,0601
1938,2024,1977,2026,0592
1908,2032,1951,2024,0583
2183,2056,2010,2062,0574
2059,2062,2046,2056,0566
1882,2049,2092,2048,0557
2141,2046,2090,2058,0548
2127,2052,2046,2046,0539
1903,2059,1977,2051,0530
2068,2051,1981,2048,0521
2209,2054,2070,2066,0512
1976,2084,2150,2078,0503
2073,2119,2101,2097,0493
2298,2126,2072,2111,0484
2113,2138,2138,2149,0475
2013,2136,2202,2131,0466
2266,2111,2171,2131,0457
2098,2064,2028,2058,0448
1880,2026,1993,2024,0440
2078,1999,1980,1996,0431
2060,1974,1974,1963,0423
1842,2009,1996,1999,0415
1980,2006,1955,1997,0406
2183,2065,2026,2051,0398
1948,2053,2016,2046,0391
1957,2053,2015,2041,0383
2173,2031,2015,2035,0375
2046,2073,2047,2061,0368
1914,2064,2033,2045,0360
2172,2064,2042,2069,0353
2114,2050,2038,2048,0346
1857,2033,2018,2029,0339
2107,2058,2041,2050,0332
2167,2043,2029,2044,0325
1906,2045,2031,2048,0318
2010,2043,2033,2031,0311
2187,2036,2025,2025,0304
1960,2044,2023,2036,0298
1909,2019,2013,2031,0291
2199,2047,2034,2045,0284
2076,2072,2041,2052,0278
1892,2043,2032,2044,0271
2150,2053,2044,2046,0265
2128,2048,2038,2056,0259
1884,2040,2036,2047,0252
2060,2038,2032,2035,0246
2186,2051,2031,2042,0240
1961,2080,2054,2068,0234
2031,2092,2094,2111,0228
2246,2095,2062,2066,0222
2003,2058,2037,2045,0216
1944,2064,2028,2009,0211
2184,2052,2025,2025,0205
2101,2091,2102,2115,0200
1871,2038,2024,2057,0195
2132,2048,2019,2052,0189
2149,2065,2074,2111,0184
1876,2028,1993,2022,0179
2043,2037,2019,2041,0175
2184,2043,1997,2006,0170
1952,2066,2062,2060,0166
1954,2032,2056,2061,0161
2221,2070,2043,2050,0157
2029,2066,2061,2060,0153
1913,2054,2052,2051,0149
2165,2048,2035,2035,0146
2116,2061,2077,2072,0143
1890,2060,2052,2048,0139
2124,2066,2043,2058,0136
2174,2054,2027,2032,0134
1907,2054,2014,2041,0131
2013,2052,2029,2050,0128
2226,2071,2048,2071,0126
1965,2056,2025,2035,0123
1969,2062,2078,2064,0121
2215,2082,2086,2097,0118
2087,2099,2060,2056,0115
1915,2074,2005,2025,0113
2183,2082,2063,2070,0110
2133,2075,2052,2079,0107
1885,2049,2025,2035,0104
2093,2056,2027,2040,0101
2202,2070,2051,2060,0098
1922,2057,2049,2051,0095
2009,2049,2042,2068,0091
2217,2065,2046,2050,0088
1967,2045,2036,2043,0084
1933,2050,2037,2044,0081
2207,2059,2043,2041,0077
2055,2048,2052,2056,0074
1926,2083,2034,2033,0071
2156,2064,2051,2067,0068
2151,2058,2004,2018,0066
1920,2071,2085,2061,0063
2067,2040,2024,1989,0061
2191,2055,2084,2098,0059
1947,2062,1982,2051,0057
2020,2080,2046,2101,0055
2220,2064,2019,2061,0053
2024,2082,2048,2063,0050
1936,2055,2059,2061,0048
2200,2067,2056,2065,0045
2103,2069,2065,2064,0042
1885,2052,2045,2040,0039
2141,2067,2057,2060,0036
2161,2068,2059,2068,0033
1912,2068,2058,2056,0030
2050,2063,2049,2048,0027
2213,2050,2038,2038,0025
1950,2057,2041,2051,0023
1942,2030,2025,1998,0021
2267,2087,2085,2084,0019
2046,2067,2039,2060,0017
1915,2063,2036,2034,0015
2172,2040,1984,2030,0014
2105,2052,2057,2068,0013
1868,2050,2070,2106,0012
2086,2034,2047,2092,0010
2173,2047,1986,2037,0009
1894,2056,2026,2039,0007
2031,2070,2064,2066,0006
2231,2069,2080,2068,0004
1956,2044,2036,2044,0002
1953,2060,2049,2056,0001
2209,2057,2053,2055,0001
2050,2052,2047,2049,0001
1885,2040,2026,2023,0001
2144,2039,2031,2043,0001
2100,2026,2008,2011,0001
1917,2075,2053,2051,0001
2094,2060,2028,2023,0001
2223,2093,2057,2066,0000
1929,2053,2021,2039,0000
1999,2058,2017,2001,0000
2226,2062,2048,2030,0000
1993,2053,2020,2057,0000
1907,2036,2031,2049,0000
2224,2071,2029,2072,0000
2091,2073,2034,2054,0000
1881,2051,2043,2053,0000
2168,2067,2055,2065,0000
2153,2063,2052,2042,0000
1889,2045,2046,2046,0000
2047,2049,2048,2050,0000
2220,2068,2049,2062,0000
1946,2061,2039,2051,0000
1987,2060,2038,2057,0000
2240,2065,2058,2065,0000
2009,2043,2030,2042,0000
1925,2064,2044,2062,0000
2180,2052,2052,2055,0000
2136,2079,2079,2074,0000
1886,2050,2049,2050,0000
2093,2030,2029,2040,0000
2199,2065,2057,2065,0000
1907,2080,2046,2050,0000
2044,2058,2056,2060,0000
2215,2059,2041,2063,0000
1955,2060,2037,2064,0000
1959,2063,2040,2056,0000
2216,2058,2046,2053,0000
2016,2034,2028,2039,0000
1886,2036,2022,2033,0001
2183,2066,2044,2053,0002
2112,2051,2038,2044,0003
1872,2040,2030,2044,0004
2103,2049,2039,2047,0007
2171,2048,2025,2048,0009
1932,2073,2027,2052,0012
2020,2049,2005,2039,0015
2224,2068,1984,2063,0018
2022,2101,2007,2078,0022
1974,2083,2036,2087,0025
2231,2079,2109,2087,0029
2063,2063,2158,2090,0032
1910,2060,2151,2053,0036
2152,2058,2090,2050,0040
2139,2052,2022,2044,0044
1901,2055,2016,2045,0048
2063,2053,2050,2042,0052
2190,2057,2130,2066,0056
1946,2068,2119,2070,0060
1984,2057,2062,2061,0064
2217,2066,2023,2048,0068
1999,2048,2003,2037,0073
1939,2059,1995,2030,0077
2198,2073,1990,2049,0081
2120,2094,1981,2047,0086
1914,2066,1952,2040,0090
2151,2065,1936,2002,0094
2166,2068,2004,2044,0098
1899,2055,2052,2052,0102
2042,2061,2141,2090,0106
2192,2067,2254,2150,0111
1950,2069,2151,2082,0115
1976,2060,2094,2061,0119
2210,2059,2006,2031,0123
2028,2061,2027,2057,0127
1916,2052,2075,2058,0132
2191,2053,2073,2074,0137
2112,2055,2029,2050,0141
1897,2046,1928,2001,0146
2105,2046,1932,2012,0152
2181,2061,2001,2034,0157
1946,2078,2080,2110,0162
2063,2101,2033,2110,0168
2236,2079,2052,2066,0173
1956,2045,2028,2055,0179
1927,2032,2054,2024,0184
2179,2028,2004,2019,0190
2042,2040,2003,2020,0195
1907,2052,2148,2095,0201
2165,2065,2039,2048,0206
2143,2068,1955,2021,0212
1902,2052,1851,2009,0218
2069,2039,2108,2070,0223
2175,2049,2263,2094,0229
1905,2054,2210,2068,0235
2001,2059,2050,2030,0241
2206,2054,1991,2030,0247
1975,2040,1995,2046,0253
1905,2030,1962,2030,0259
2162,2040,1996,2031,0265
2082,2065,2105,2104,0272
1923,2071,2091,2068,0278
2169,2080,1990,2054,0285
2188,2082,1930,2030,0292
1903,2064,2043,2059,0299
2051,2047,2166,2048,0306
2187,2055,2176,2065,0313
1917,2036,2051,2028,0320
1972,2046,1977,2029,0327
2194,2051,1991,2045,0334
2002,2052,2043,2057,0341
1918,2053,1970,2023,0348
2179,2060,2024,2066,0355
2108,2070,1930,2024,0362
1914,2064,1882,2015,0369
2134,2070,1979,2090,0376
2176,2078,2232,2116,0383
1919,2080,2278,2095,0390
2033,2062,2111,2055,0396
2211,2065,1908,2024,0403
1967,2055,1899,2024,0409
1950,2047,2079,2044,0416
2157,2026,2141,2038,0423
2045,2038,2143,2036,0429
1889,2038,2145,2089,0436
2194,2064,2013,2077,0442
2166,2084,1923,2049,0449
1897,2079,1929,2064,0456
2103,2071,2156,2115,0463
2193,2067,2209,2097,0469
1927,2060,2084,2043,0476
2019,2071,1992,2029,0483
2230,2084,1981,2046,0491
2005,2077,1996,2045,0498
1964,2080,1980,2064,0505
2224,2074,2050,2074,0512
2059,2060,2092,2069,0519
1892,2046,1917,2008,0525
2160,2061,1886,2035,0532
2149,2073,2122,2078,0539
1907,2075,2351,2122,0546
2112,2077,2143,2073,0553
2202,2071,1950,2051,0559
1953,2068,1949,2024,0566
2019,2062,2167,2087,0573
2226,2052,2072,2047,0580
2024,2047,2015,2032,0587
1950,2034,2003,2027,0593
2183,2039,2116,2074,0600
2037,2054,1909,2026,0607
1859,2059,1839,2012,0614
2111,2061,1966,1996,0621
2154,2072,2202,2076,0628
1915,2067,2210,2066,0635
2058,2064,2101,2087,0641
2196,2070,1881,2024,0648
1936,2063,1919,2030,0655
1967,2056,2111,2049,0662
2202,2056,2167,2086,0669
2015,2068,2018,2076,0675
1906,2046,1954,2015,0682
2169,2045,1984,1990,0689
2096,2041,2128,2018,0696
1873,2030,2053,2024,0703
2099,2041,1968,2047,0710
2189,2076,2073,2046,0717
1932,2064,2197,2133,0723
2051,2075,2016,2048,0730
2212,2063,1831,2000,0737
1957,2060,1899,2006,0744
1954,2064,2126,2049,0751
2196,2051,2069,2055,0757
2027,2052,2164,2062,0764
1904,2058,2204,2090,0771
2158,2057,2114,2076,0778
2133,2070,1941,2037,0785
1926,2080,1947,2051,0791
2115,2085,2151,2096,0799
2221,2097,2143,2094,0806
1954,2077,1943,2038,0812
2014,2052,1925,2024,0819
2231,2082,2006,2069,0826
1972,2070,2048,2076,0833
1950,2063,1888,1955,0840
2205,2046,2135,2063,0847
2057,2041,2303,2111,0854
1887,2033,1967,2058,0861
2131,2031,1847,1987,0867
2117,2039,2051,2018,0874
1880,2048,2271,2094,0881
2050,2046,2101,2014,0887
2194,2043,1764,1972,0894
1922,2040,1919,1981,0901
1971,2062,2232,2131,0907
2207,2075,2161,2104,0914
1972,2054,1996,2020,0921
1979,2075,2024,2042,0927
2216,2073,1968,2019,0934
2110,2087,2071,2107,0940
1934,2069,1981,2043,0946
2119,2063,2031,2095,0952
2144,2042,1989,2020,0959
1895,2039,2033,2044,0965
2032,2048,2085,2044,0971
2210,2079,2094,2071,0978
1959,2072,2026,2046,0984
1962,2046,2116,2030,0990
2212,2059,2230,2066,0996
2030,2066,2018,2052,1002
1913,2050,1878,2002,1008
2178,2052,1939,1988,1015
2041,2047,2161,2111,1021
1897,2046,2114,2040,1027
2100,2039,1976,2060,1033
2187,2045,1962,2024,1039
1923,2050,2053,2044,1045
2011,2050,1862,1998,1051
2203,2068,1798,1986,1057
1980,2085,2120,2074,1063
2000,2088,2214,2139,1069
2191,2073,2327,2182,1074
2071,2071,2008,2058,1080
1868,2014,1815,1929,1086
2144,2037,2196,2067,1092
2121,2045,2211,2068,1098
1885,2049,2138,2094,1105
2104,2050,1974,2025,1111
2206,2056,1997,2037,1117
1930,2064,1981,2052,1123
1975,2071,1984,2069,1129
2238,2074,2023,2051,1135
2025,2074,2156,2103,1142
1929,2070,2030,2032,1147
2218,2041,1786,1950,1154
2080,2053,2104,2077,1159
1881,2065,2290,2112,1165
2159,2068,2095,2057,1171
2199,2090,1828,2000,1177
1916,2087,2027,2125,1182
2065,2077,2368,2181,1188
2230,2074,2141,2054,1194
1965,2053,1726,1950,1199
1987,2063,1879,2088,1205
2207,2063,2138,2101,1210
2047,2067,2332,2108,1216
1928,2054,1892,1968,1221
2179,2056,1921,2022,1227
2105,2068,2218,2185,1232
1875,2049,2152,2107,1237
2098,2041,2133,2041,1242
2165,2043,2003,2024,1247
1865,2028,1848,2010,1253
2035,2037,1731,1975,1258
2217,2037,2031,1980,1263
1981,2067,2231,2032,1268
1977,2055,2336,2083,1273
2245,2080,2170,2131,1277
2053,2068,1847,2048,1282
1876,2038,1893,2033,1287
2198,2072,2093,2084,1291
2126,2061,2056,2046,1296
1907,2067,2240,2086,1300
2083,2029,1721,1966,1305
2179,2036,1634,1984,1309
1926,2087,2342,2138,1313
2009,2079,2355,2118,1318
2194,2067,2126,2048,1322
1998,2056,1865,2018,1326
1889,2060,2144,2072,1330
2203,2085,2299,2108,1334
2083,2057,2119,2046,1338
1870,2012,1351,1897,1342
2116,2058,2050,2065,1346
2141,2093,2423,2213,1349
1896,2080,2363,2110,1353
2083,2067,2098,2057,1357
2190,2029,1572,1929,1361
1923,2050,1832,2001,1364
2008,2087,2276,2185,1368
2234,2059,2301,2139,1371
2012,2057,1959,2045,1375
1948,2031,1552,1896,1378
2233,2056,1824,1981,1381
2086,2091,2518,2153,1384
1907,2084,2446,2130,1387
2151,2055,2041,2024,1390
2143,2029,1746,1946,1394
1897,2057,2160,2121,1396
2045,2053,2244,2084,1399
2221,2073,2062,2070,1402
1963,2030,1677,1946,1405
1955,2037,1896,2108,1408
2228,2084,2279,2095,1410
2057,2091,2291,2095,1413
1921,2082,2269,2108,1415
2187,2045,1839,2004,1418
2075,2012,1673,1940,1420
1908,2046,2034,2091,1422
2086,2041,2274,2053,1424
2208,2045,2108,1989,1426
1879,2007,1994,1977,1428
2047,2031,1871,2041,1430
2228,2088,2228,2200,1432
1975,2091,2288,2105,1434
1985,2079,1929,2044,1436
2168,2026,1779,1961,1437
2011,2054,2078,2060,1439
1925,2054,2202,2084,1440
2151,2063,2180,2024,1442
2126,2030,1828,1941,1443
1854,2020,1862,2031,1444
2011,2021,2042,1991,1446
2214,2065,2189,2148,1447
1937,2057,1999,2062,1448
2001,2038,1798,2029,1448
2216,2044,1874,1975,1449
1980,2069,2136,2031,1450
1952,2075,2193,2071,1451
2227,2059,1902,2019,1451
2078,2071,2178,2184,1452
1882,2073,2241,2070,1453
2132,2074,2205,2073,1453
2162,2063,1932,1985,1454
1890,2060,1886,2039,1455
2092,2073,2039,2070,1455
2218,2083,2142,2099,1456
1945,2058,2004,2056,1456
1982,2040,1957,2001,1457
2240,2066,1940,2039,1457
2011,2070,2023,2044,1457
1929,2050,1989,1999,1458
2190,2042,2120,2095,1458
2097,2072,2214,2092,1458
1891,2072,2131,2117,1458
2145,2072,2041,2070,1458
2173,2064,2036,2059,1458
1900,2057,2033,2047,1458
2031,2037,1969,2016,1458
2217,2054,1958,2032,1458
1965,2059,2091,2079,1458
1964,2052,2063,2027,1458
2222,2057,2079,2044,1458
2035,2066,1913,2051,1458
1900,2054,1871,2022,1457
2205,2072,2066,2051,1457
2126,2061,2120,2043,1457
1903,2064,2159,2057,1457
2119,2070,2055,2068,1456
2194,2078,1976,2047,1456
1908,2056,1988,2032,1455
2028,2059,2053,2064,1454
2229,2065,2041,2059,1453
1977,2061,2090,2076,1452
1952,2069,2049,2079,1451
2212,2049,1960,2032,1450
2072,2062,2014,2033,1449
1921,2070,2103,2063,1447
2160,2061,2072,2071,1446
2143,2078,2066,2067,1444
1904,2058,2013,2050,1443
2061,2053,2017,2044,1441
2206,2069,2010,2057,1439
1928,2054,2048,2042,1437
1990,2049,1950,2017,1435
2174,2058,2110,2061,1433
2042,2076,2119,2097,1431
1923,2061,2049,2034,1429
2238,2084,2077,2078,1426
2101,2068,2007,2038,1424
1881,2065,2084,2077,1421
2141,2060,2114,2063,1419
2162,2064,2026,2034,1416
1891,2057,2096,2072,1414
2054,2053,2025,2039,1411
2198,2055,2004,2038,1409
1940,2061,2038,2053,1406
1974,2050,2018,2041,1404
2200,2058,2020,2043,1401
2024,2066,2052,2065,1398
1914,2050,1990,2048,1395
2192,2055,2036,2057,1392
2107,2067,2072,2064,1389
1913,2064,2029,2040,1386
2126,2066,2018,2050,1382
2204,2074,2058,2079,1378
1908,2069,2036,2067,1374
2035,2053,2057,2023,1369
2217,2052,2072,2032,1364
1951,2050,2122,2058,1359
1940,2054,2112,2081,1354
2220,2067,2087,2097,1349
2042,2068,2002,2029,1344
1895,2056,2029,2036,1339
2160,2065,2011,2048,1334
2101,2070,1983,2044,1330
1918,2069,2038,2047,1325
2113,2075,2068,2069,1320
2232,2084,2063,2060,1315
1921,2075,2004,2045,1310
1995,2063,2035,2076,1305
2218,2063,2066,2083,1300
1982,2052,2021,2053,1295
1934,2048,1997,2030,1289
2188,2035,2013,2031,1283
2037,2039,2099,2063,1277
1882,2058,2122,2066,1271
2138,2055,2085,2060,1265
2156,2068,2030,2062,1258
1898,2057,2013,2042,1252
2088,2054,2020,2050,1245
2225,2068,2128,2078,1239
1933,2054,2111,2066,1232
1992,2044,2090,2058,1226
2222,2043,1987,2026,1219
2007,2030,1932,1985,1213
1893,2036,1979,2021,1206
2196,2034,2057,2056,1200
2066,2036,2078,2055,1193
1874,2034,2052,2040,1187
2144,2049,1909,1977,1180
2156,2055,1982,2050,1173
1889,2069,2140,2102,1167
2066,2072,2174,2113,1160
2236,2085,2154,2122,1153
1969,2077,2021,2059,1147
1984,2062,1972,2025,1140
2228,2059,2007,2046,1134
2015,2052,2056,2065,1127
1902,2049,2092,2080,1121
2184,2064,2092,2073,1114
2120,2065,2022,2046,1108
1900,2061,2001,2035,1102
2125,2065,2017,2054,1095
2177,2058,2050,2046,1089
1875,2032,2024,2029,1083
2008,2033,2012,2024,1077
2206,2053,2057,2049,1071
1954,2060,2076,2063,1064
1918,2051,2004,2002,1058
2192,2044,2033,2038,1051
2076,2064,2095,2100,1045
1910,2066,2067,2073,1038
2233,2077,2070,2093,1031
2149,2064,2002,2033,1024
1874,2052,2030,2042,1016
2090,2052,2044,2060,1009
2197,2059,2017,2038,1001
1909,2048,1968,2015,0993
1976,2029,1997,2026,0985
2195,2037,2102,2049,0977
1959,2047,2165,2112,0968
1929,2065,2091,2072,0960
2223,2075,2014,2076,0952
2101,2080,2031,2067,0943
1891,2068,2084,2063,0935
2163,2067,2122,2070,0927
2156,2072,2070,2056,0919
1912,2073,2042,2056,0912
2071,2076,2042,2050,0904
2216,2066,2041,2051,0896
1966,2049,2014,2037,0889
1996,2059,2007,2050,0881
2244,2069,2021,2064,0873
2038,2083,2034,2066,0864
1923,2066,1976,2036,0856
2179,2053,2011,2057,0847
2109,2065,2051,2071,0839
1871,2048,2145,2100,0830
2131,2053,2095,2069,0820
2160,2036,1984,2013,0811
1879,2029,2015,2027,0802
2012,2031,2149,2063,0794
2203,2050,2160,2061,0785
1953,2052,2077,2043,0777
1977,2070,1999,2049,0769
2236,2070,2015,2054,0761
2048,2071,2041,2057,0753
1906,2050,2003,2035,0746
2183,2063,2017,2047,0739
2140,2086,2052,2080,0732
1921,2088,2066,2085,0725
2163,2101,2062,2112,0717
2208,2084,2048,2067,0710
1908,2042,2018,2031,0703
2024,2054,2026,2049,0696
2219,2057,2075,2063,0688
1974,2064,2021,2035,0680
1946,2060,2018,2052,0672
2190,2052,2020,2039,0664
2041,2059,2036,2068,0656
1877,2037,1938,2020,0648
2142,2029,1944,2002,0639
2117,2042,2116,2067,0631
1855,2036,2220,2062,0622
2042,2031,2183,2060,0614
2154,2043,2053,2045,0606
1921,2060,2041,2061,0598
2004,2069,2063,2076,0590
2245,2091,2051,2078,0583
2029,2100,2023,2076,0577
1940,2070,2015,2052,0570
2198,2051,2001,2038,0564
2054,2023,1979,2008,0559
1861,2028,1987,2013,0553
2119,2034,2003,2026,0548
2138,2024,1993,2027,0543
1884,2038,2015,2031,0538
2050,2040,2023,2035,0532
2175,2026,2016,2021,0527
1947,2047,2026,2037,0522
1968,2039,2030,2037,0517
2229,2068,2042,2055,0512
2039,2062,2053,2069,0506
1932,2088,2054,2072,0501
2207,2078,2068,2081,0495
2111,2074,2044,2060,0490
1913,2070,2047,2070,0483
2137,2080,2059,2068,0477
2177,2058,2069,2071,0471
1906,2057,2068,2054,0464
2018,2056,2058,2050,0458
2224,2077,2071,2071,0451
1961,2071,2059,2071,0443
1982,2092,2078,2093,0436
2187,2046,2032,2039,0428
2011,2045,1987,2018,0420
1879,2042,1993,2032,0412
2167,2061,2064,2082,0404
2139,2081,2128,2100,0396
1921,2080,2129,2087,0388
2106,2070,2082,2049,0379
2196,2060,2032,2048,0371
1919,2041,2012,2025,0363
2008,2041,2012,2030,0355
2231,2063,2028,2052,0348
1991,2060,2024,2044,0340
1992,2071,2055,2075,0333
2213,2072,2032,2050,0325
2069,2058,2031,2048,0318
1897,2037,2012,2026,0311
2139,2048,2031,2047,0304
2147,2079,2049,2056,0298
1914,2063,2056,2069,0291
2069,2051,2041,2052,0285
2184,2050,2044,2046,0278
1942,2055,2054,2065,0272
2001,2065,2033,2036,0266
2211,2053,2042,2046,0260
1970,2030,2035,2043,0254
1938,2066,2057,2065,0249
2194,2072,2062,2070,0243
2096,2067,2032,2057,0238
1888,2039,2008,2031,0233
2082,2018,2001,2030,0228
2135,2051,2028,2038,0223
1909,2060,2051,2055,0218
2063,2072,2057,2065,0213
2219,2084,2090,2094,0208
1960,2072,2063,2072,0204
1977,2062,2048,2034,0199
2204,2063,2076,2077,0195
2030,2062,2032,2029,0191
1911,2057,2052,2072,0187
2169,2044,2007,2023,0184
2097,2045,2029,2047,0180
1877,2043,2027,2031,0177
2094,2050,2046,2044,0174
2172,2051,2046,2049,0171
1904,2046,2023,2028,0169
2004,2047,2026,2040,0166
2240,2087,2061,2068,0164
1965,2058,2042,2042,0162
1970,2087,2076,2082,0159
2219,2081,2052,2068,0158
2077,2084,2053,2063,0156
1906,2057,2041,2009,0154
2185,2085,2136,2133,0152
2124,2054,1987,2019,0151
1886,2080,2057,2098,0149
2075,2043,1984,2008,0147
2192,2048,2030,2031,0146
1918,2058,2063,2060,0144
1990,2048,2006,2022,0142
2223,2066,2052,2058,0140
2014,2087,2047,2049,0137
1973,2092,2080,2092,0135
2219,2079,2062,2073,0132
2088,2069,2076,2078,0129
1912,2067,2046,2056,0126
2135,2041,2036,2035,0122
2142,2058,2036,2035,0119
1868,2017,2012,2004,0115
2047,2038,2026,2033,0112
2200,2059,2031,2042,0109
1951,2063,2021,2029,0106
1973,2036,1999,2001,0103
2199,2046,2032,2043,0100
1999,2061,2004,2058,0097
1917,2054,2025,2054,0095
2175,2044,2025,2047,0092
2097,2066,2044,2048,0089
1890,2056,2053,2055,0086
2134,2061,2055,2073,0084
2178,2070,2046,2048,0081
1926,2065,2072,2081,0078
2055,2068,2055,2060,0075
2223,2062,2056,2063,0073
1993,2092,2063,2056,0070
2003,2088,2099,2104,0068
2243,2080,2063,2072,0065
2043,2054,2012,2026,0063
1909,2055,2044,2043,0061
2222,2107,2104,2106,0059
2123,2065,2063,2063,0057
1908,2080,2049,2055,0055
2099,2048,2010,2043,0053
2198,2091,2086,2121,0051
1923,2069,2046,2071,0049
2033,2067,2045,2061,0047
2207,2055,2032,2042,0045
1982,2066,2072,2071,0043
1950,2057,2059,2048,0040
2245,2086,2080,2081,0038
2073,2066,2055,2064,0036
1895,2066,2044,2048,0034
2151,2044,2024,2023,0032
2124,2043,2032,2040,0030
1892,2064,2048,2042,0029
2051,2031,2024,2023,0027
2184,2048,2024,2033,0025
1926,2050,2057,2056,0024
1993,2064,2041,2041,0023
2222,2069,2051,2033,0022
2007,2061,2094,2113,0021
1935,2062,2069,2123,0020
2198,2065,2003,2069,0019
2091,2070,2035,2080,0017
1878,2042,2012,2032,0016
2136,2061,2051,2041,0014
2158,2060,2065,2071,0013
1919,2084,2065,2073,0011
2035,2036,2025,2029,0009
2184,2039,2047,2045,0007
1920,2033,2018,2023,0005
1976,2049,2043,2042,0003
2216,2053,2043,2048,0001
2028,2065,2059,2057,0001
1898,2033,2029,2043,0001
2202,2084,2046,2056,0001
2103,2054,2040,2042,0001
1864,2039,2018,2003,0001
2094,2025,2059,2064,0001
2156,2033,2000,1997,0001
1905,2058,2035,1996,0001
2082,2098,2083,2074,0001
2237,2086,2063,2147,0001
1948,2064,2031,2092,0001
1957,2056,2018,2029,0001
2232,2075,2143,2142,0001
2048,2070,2059,2066,0001
1900,2061,2027,2072,0001
2179,2061,2026,2040,0001
2123,2056,2061,2049,0001
1879,2053,2053,2070,0000
2097,2053,2047,2044,0000
2188,2053,2055,2047,0000
1915,2056,2056,2055,0000
2016,2056,2038,2043,0000
2226,2071,2053,2058,0000
1983,2046,2038,2044,0000
1960,2079,2056,2073,0000
2206,2063,2043,2056,0000
2079,2072,2055,2066,0000
1897,2053,2035,2048,0000
2153,2058,2048,2060,0000
2108,2035,2031,2041,0000
1893,2056,2028,2023,0000
2062,2045,2035,2048,0000
2228,2084,2057,2063,0000
1929,2044,2015,2022,0000
1990,2059,2030,2072,0000
2210,2051,2037,2058,0000
2009,2055,2031,2060,0000
1912,2052,2042,2040,0000
2177,2043,2034,2039,0000
2119,2085,2019,2060,0000
1891,2061,1997,2036,0000
2123,2057,1982,2037,0000
2181,2067,2021,2063,0001
1887,2042,2090,2061,0001
2056,2056,2137,2066,0001
2239,2079,2126,2064,0002
1956,2065,2067,2045,0003
1974,2064,2014,2048,0003
2218,2060,2051,2071,0005
2029,2062,2085,2055,0006
1909,2058,2094,2060,0007
2195,2071,2024,2046,0009
2130,2071,1985,2055,0010
1898,2068,1972,2062,0012
2113,2065,2033,2078,0014
2206,2083,2063,2071,0016
1933,2073,2051,2048,0018
2041,2075,1990,2024,0020
2222,2057,2042,2042,0023
1952,2040,2113,2048,0026
1910,2032,2191,2070,0029
2184,2044,2156,2086,0032
2048,2049,2091,2079,0035
1901,2061,2008,2070,0039
2169,2064,2010,2044,0043
2140,2055,1966,2019,0047
1881,2037,1984,2030,0051
2064,2037,2008,2030,0055
2181,2046,1989,2038,0060
1921,2052,1933,2009,0065
2017,2055,1878,2016,0070
2209,2056,1980,2060,0075
1994,2060,2088,2066,0080
1920,2053,2221,2132,0085
2202,2064,2208,2076,0090
2079,2071,2117,2076,0096
1896,2051,2051,2025,0102
2143,2052,2048,2038,0107
2156,2068,2032,2051,0113
1922,2078,1941,2039,0120
2090,2096,1851,2043,0126
2218,2075,1993,2079,0133
1953,2070,2210,2104,0139
1984,2066,2254,2094,0146
2217,2054,2018,2025,0153
2036,2067,1916,2056,0160
1939,2075,2043,2054,0168
2193,2081,2283,2152,0175
2094,2069,2211,2100,0183
1901,2058,2006,2024,0191
2105,2036,1894,1993,0199
2150,2050,1953,2020,0207
1903,2035,1947,2021,0215
2016,2040,1924,2025,0223
2208,2065,1930,2018,0231
1950,2051,2093,2098,0240
1953,2056,2093,2095,0248
2199,2052,2090,2073,0257
2064,2072,2062,2048,0265
1945,2067,2046,2039,0274
2198,2089,2155,2051,0283
2108,2061,2140,2070,0292
1880,2041,1965,2037,0301
2105,2043,1864,2040,0310
2182,2051,1871,2015,0320
1902,2044,2160,2066,0329
1992,2045,2245,2060,0339
2176,2043,2182,2060,0348
1959,2046,1978,2005,0358
1927,2036,1873,2007,0368
2187,2040,1924,2019,0378
2057,2066,2071,2062,0388
1912,2077,2282,2146,0398
2151,2065,2234,2100,0409
2134,2052,2054,2040,0419
1892,2056,1856,1982,0429
2081,2066,1824,2001,0439
2235,2093,1916,2088,0449
1954,2076,2050,2082,0459
2034,2096,2172,2144,0469
2223,2084,2014,2080,0479
1982,2071,2017,2065,0489
1943,2056,2069,2028,0499
2202,2054,2135,2020,0509
2116,2089,2216,2098,0518
1936,2088,2143,2114,0528
2151,2089,2102,2112,0538
2174,2085,2053,2096,0547
1927,2080,1997,2036,0557
2067,2051,2047,2049,0567
2218,2070,2077,2087,0576
1938,2048,1978,2037,0586
1950,2032,1931,2016,0596
2189,2032,2017,2020,0605
2008,2038,1999,1986,0615
1940,2017,1955,1992,0624
2200,2036,2028,2004,0633
2124,2039,2163,2105,0643
1878,2045,1976,2056,0652
2073,2045,1694,1995,0661
2136,2062,2045,2070,0670
1882,2065,2421,2137,0679
1994,2072,2381,2112,0688
2194,2067,1940,2017,0697
1950,2053,1755,1960,0706
1930,2052,2020,2045,0715
2185,2060,2175,2094,0724
2048,2063,2078,2091,0734
1898,2062,1869,2017,0743
2152,2055,1926,2044,0751
2148,2065,2157,2051,0761
1892,2059,2281,2142,0770
2093,2062,2156,2101,0779
2200,2044,1962,2004,0788
1916,2038,1873,1970,0797
2009,2049,2045,2025,0806
2218,2060,2047,2095,0815
2003,2073,1976,2053,0824
1944,2067,2148,2108,0833
2217,2077,1898,2002,0842
2065,2053,1982,2077,0851
1907,2068,2185,2080,0860
2152,2072,2117,2082,0869
2145,2062,2025,2053,0878
1895,2050,1728,1915,0887
2080,2065,2158,2102,0896
2216,2089,2480,2233,0905
1966,2073,2080,2095,0914
1954,2038,1889,2031,0923
2227,2051,2040,1998,0931
2019,2037,1911,1940,0940
1919,2025,1979,2003,0949
2204,2053,1949,2032,0958
2071,2065,1898,2037,0966
1861,2066,2035,2049,0975
2129,2067,2129,2082,0983
2161,2057,2283,2124,0992
1901,2059,2082,2094,1000
2031,2059,1898,2041,1008
2243,2071,1919,2025,1016
1982,2069,2181,2065,1024
1976,2054,1972,2005,1032
2205,2037,1822,1979,1040
1988,2050,2173,2074,1048
1929,2068,2429,2172,1056
2180,2031,2148,2024,1064
2130,2052,1929,2010,1072
1903,2049,1911,2080,1080
2111,2068,1871,2032,1087
2216,2108,2179,2159,1095
1938,2093,2140,2110,1103
2048,2096,2078,2057,1110
2221,2060,2024,2062,1118
1944,2036,1769,1978,1125
1903,2037,2042,2005,1132
2224,2083,2371,2163,1139
2079,2073,2189,2134,1146
1922,2065,1921,2080,1153
2199,2068,1766,1936,1160
2129,2054,2049,2045,1166
1860,2047,2126,2026,1173
2096,2049,1817,2004,1179
2171,2042,1906,1992,1186
1923,2071,2466,2139,1193
2031,2074,2494,2176,1199
2245,2066,2133,2079,1206
2025,2072,1761,1990,1212
1939,2054,1807,2030,1219
2230,2096,2033,2107,1225
2092,2079,2151,2096,1231
1928,2075,1997,2034,1237
2129,2048,2074,2062,1243
2090,2047,2061,2071,1249
1871,2002,1998,2058,1255
2052,2047,2169,2074,1260
2200,2028,1867,1972,1266
1938,2035,1813,1962,1271
1934,2021,2012,2011,1276
2212,2063,2327,2171,1281
2020,2052,2140,2084,1287
1926,2060,1794,1974,1292
2183,2043,1930,1975,1297
2128,2088,2322,2111,1302
1901,2067,2127,2084,1307
2163,2087,2006,2101,1312
2168,2054,1847,1976,1317
1904,2069,2071,2005,1322
2015,2051,2200,2053,1326
2215,2085,2182,2088,1331
1912,2042,1900,2025,1335
1918,2035,1871,2031,1340
2193,2027,1960,1998,1344
2061,2036,1892,2013,1348
1861,2012,1940,2000,1352
2198,2053,2203,2060,1356
2091,2067,2136,2125,1359
1873,2087,2178,2141,1363
2107,2048,1854,2020,1367
2165,2020,1834,1894,1370
1900,2069,2311,2146,1374
1953,2080,2262,2143,1377
2283,2096,2067,2141,1380
2026,2068,1822,2044,1384
1966,2046,2042,2048,1387
2253,2064,2198,2058,1390
2047,2075,2154,2075,1393
1944,2072,2003,2018,1396
2175,2031,1741,2000,1399
2147,2032,2017,1993,1402
1872,2042,2103,2050,1405
2089,2076,2320,2121,1407
2224,2080,2200,2146,1410
1965,2040,1731,1990,1412
2011,2039,1846,2015,1414
2161,2035,1904,1964,1416
2010,2070,2212,2117,1419
1921,2039,2094,2001,1421
2202,2061,2030,2087,1423
2094,2086,2150,2109,1425
1882,2070,2048,2084,1427
2182,2085,2090,2110,1429
2152,2036,1740,1966,1431
1888,2046,1879,1975,1432
2081,2057,2116,2077,1434
2218,2062,2077,2035,1436
1942,2052,2172,2101,1438
1977,2078,2284,2107,1439
2171,2033,1954,2038,1441
2032,2065,2057,2027,1443
1956,2069,1918,2020,1444
2159,2064,1846,2008,1446
2154,2091,2330,2122,1447
1900,2044,2019,2061,1448
2059,2008,1462,1863,1450
2209,2056,2009,2011,1451
1922,2082,2485,2228,1452
2026,2105,2674,2177,1453
2237,2108,2288,2170,1454
1956,2001,1515,1901,1456
1947,2040,1910,1974,1457
2200,2068,2187,2088,1458
2059,2055,1830,1985,1459
1897,2045,1902,2014,1460
2138,2049,2065,2105,1461
2098,2058,2211,2118,1462
1895,2077,2136,2123,1463
2107,2037,1913,2008,1464
2227,2079,2164,2093,1465
1922,2068,2172,2063,1466
2036,2060,2209,2069,1466
2218,2023,1675,1941,1467
1991,2066,1808,2019,1468
1930,2047,2082,1973,1468
2192,2076,2319,2150,1469
2077,2078,2233,2126,1469
1904,2047,1785,1991,1470
2148,2054,1941,2041,1470
2165,2060,1959,2041,1470
1900,2062,2096,2104,1470
2093,2096,2349,2168,1471
2220,2074,2017,2029,1471
1943,2067,2080,2022,1471
1987,2048,1973,2068,1471
2202,2040,1845,2025,1471
2020,2087,2354,2171,1471
1914,2049,2014,1998,1471
2210,2086,2138,2087,1471
2082,2034,1882,1994,1471
1894,2052,2041,2031,1471
2127,2063,2087,2075,1471
2164,2070,1939,2054,1471
1897,2033,1710,1969,1471
2048,2039,2073,2041,1471
2192,2089,2440,2166,1471
1996,2083,2317,2099,1471
1979,2075,1998,2037,1470
2242,2060,1894,2047,1470
2035,2054,1961,2031,1470
1893,2063,2033,2058,1470
2180,2076,2001,2069,1470
2125,2088,2085,2104,1470
1886,2056,1901,2029,1470
2106,2058,1980,2024,1470
2188,2063,2085,2062,1469
1919,2072,2199,2091,1469
2021,2062,2135,2076,1468
2219,2071,1857,1969,1468
1989,2062,1990,2050,1467
1976,2064,2012,2037,1467
2199,2072,2136,2131,1466
2072,2076,2072,2056,1466
1880,2039,2050,2018,1465
2170,2069,2118,2054,1464
2164,2071,2083,2065,1463
1907,2062,2007,2056,1462
2096,2065,2029,2056,1461
2207,2069,2001,2040,1460
1932,2055,2013,2048,1459
2017,2067,2063,2046,1458
2243,2075,2082,2067,1456
2002,2068,2089,2073,1455
1932,2056,2048,2055,1453
2204,2060,1900,2027,1451
2080,2065,1990,2037,1450
1878,2059,2087,2058,1448
2130,2066,2100,2049,1446
2147,2063,2093,2054,1443
1920,2083,1964,2057,1441
2079,2058,1990,2073,1439
2236,2077,2148,2097,1436
1937,2061,2090,2058,1434
1959,2048,2119,2030,1431
2205,2043,2024,2025,1428
2002,2042,1999,2037,1425
1890,2056,2033,2049,1422
2173,2051,2034,2029,1419
2096,2046,2018,2029,1416
1876,2041,1969,2008,1412
2088,2040,1951,2004,1409
2189,2070,2100,2099,1405
1928,2064,2087,2080,1401
2058,2064,2072,2081,1397
2224,2069,1951,2036,1393
1948,2055,1979,2047,1389
1903,2038,2161,2050,1384
2184,2055,2117,2057,1379
2013,2054,2111,2073,1375
1870,2051,1991,2043,1370
2180,2054,1979,2029,1365
2099,2062,2035,2051,1360
1893,2060,2065,2064,1355
2116,2058,2057,2049,1349
2200,2063,2081,2053,1344
1918,2057,1951,2024,1339
1996,2049,1946,2015,1333
2200,2063,2068,2069,1328
1992,2071,2133,2121,1322
1967,2069,2081,2064,1316
2249,2082,2050,2052,1310
2097,2056,1948,2014,1304
1909,2063,2082,2063,1298
2172,2073,2140,2099,1291
2174,2069,2105,2056,1285
1909,2070,2073,2068,1279
2089,2065,2054,2078,1272
2201,2071,2048,2064,1266
1927,2064,2058,2064,1259
1980,2045,1912,2013,1253
2234,2056,2023,2041,1247
2025,2055,2114,2080,1240
1915,2032,2078,2056,1234
2191,2039,2048,2053,1227
2080,2044,2014,2035,1221
1863,2044,1996,2014,1214
2162,2054,1920,2009,1208
2168,2056,1935,2045,1201
1885,2057,2177,2082,1194
2049,2063,2154,2075,1187
2215,2059,2107,2057,1180
1931,2054,1974,2015,1173
1973,2040,1973,2029,1166
2202,2054,2018,2015,1159
2027,2063,2096,2079,1152
1916,2081,2095,2079,1145
2199,2075,2090,2071,1138
2108,2079,2052,2059,1131
1884,2066,2019,2051,1124
2106,2063,2016,2056,1117
2183,2072,2014,2046,1110
1910,2052,2013,2036,1104
2023,2052,2053,2048,1097
2239,2054,2047,2044,1090
1927,2043,1953,2013,1083
1951,2042,1975,2025,1076
2201,2048,2079,2075,1068
2052,2061,2124,2087,1061
1893,2056,2066,2030,1054
2172,2062,2074,2062,1046
2134,2067,2059,2064,1038
1894,2056,2038,2065,1031
2071,2043,1980,2049,1023
2179,2040,1983,2044,1016
1906,2046,2103,2051,1009
1992,2044,2073,2020,1001
2254,2060,2078,2046,0994
2020,2058,2012,2053,0986
1927,2053,2031,2059,0979
2195,2054,1968,2033,0971
2109,2061,1972,2034,0964
1880,2056,2007,2042,0956
2152,2058,2101,2056,0949
2173,2070,2140,2086,0941
1887,2073,2078,2086,0933
2070,2069,2006,2048,0925
2204,2066,2007,2022,0917
1918,2062,2085,2083,0909
1966,2068,2043,2080,0902
2209,2063,2079,2092,0894
2011,2053,2071,2046,0886
1902,2048,2082,2026,0879
2184,2058,2065,2063,0871
2110,2056,2004,2051,0864
1913,2065,2004,2046,0857
2126,2069,2030,2054,0849
2183,2082,1965,2058,0842
1892,2068,1899,2034,0835
2080,2062,2066,2076,0827
2210,2057,2196,2097,0820
1960,2059,2236,2106,0813
1976,2062,2158,2099,0805
2237,2079,2040,2061,0798
2077,2097,2045,2061,0791
1948,2089,2055,2083,0784
2196,2071,2026,2051,0778
2123,2052,2023,2037,0771
1876,2029,1994,2019,0765
2080,2031,1945,2015,0758
2155,2026,1955,2015,0752
1884,2019,2033,2031,0746
1996,2017,2073,2012,0739
2210,2030,1989,2014,0733
1919,2019,1893,2009,0726
1961,2036,2040,2038,0720
2218,2041,2159,2066,0713
2078,2056,2094,2042,0707
1921,2043,1936,1999,0700
2133,2052,1985,2040,0693
2102,2063,2202,2108,0686
1871,2060,2165,2080,0679
2108,2090,2136,2116,0673
2243,2114,2026,2088,0666
1994,2122,2040,2093,0659
2069,2118,2074,2114,0653
2259,2105,2070,2095,0647
2041,2125,2086,2106,0640
1957,2104,2082,2094,0634
2209,2093,2052,2077,0628
2072,2072,2033,2060,0623
1843,2034,1999,2027,0617
2058,2019,1952,2005,0611
2021,1994,1882,1970,0605
1770,2022,1886,1995,0598
1901,2000,1993,2002,0592
2061,2010,2106,2020,0585
1840,2004,2166,2021,0578
1928,2028,2123,2030,0572
2241,2064,2061,2064,0565
2051,2068,2047,2057,0559
1962,2060,2014,2056,0552
2180,2052,2045,2057,0546
2066,2048,2045,2044,0539
1861,2048,2041,2048,0533
1967,2044,2023,2035,0526
1898,2055,2000,2048,0520
1996,2056,2019,2052,0513
2217,2054,2013,2034,0506
2564,2067,2027,2057,0499
2323,2058,1994,2060,0491
2194,2080,2049,2083,0484
2368,2086,2034,2073,0478
2260,2110,2027,2089,0471
2087,2096,2045,2092,0464
2254,2059,2060,2066,0457
2237,2060,2154,2067,0450
1908,2010,2092,2032,0443
2028,2010,2030,2006,0435
2032,2021,2033,2017,0428
1797,2029,2026,2028,0421
1882,2037,2057,2023,0414
2047,2044,1996,2009,0407
1887,2046,2024,2052,0400
1851,2061,2023,2063,0393
2188,2099,2068,2111,0386
2101,2106,2087,2093,0379
1898,2072,2072,2070,0372
2123,2058,2042,2045,0365
2151,2065,2035,2055,0358
1900,2048,2025,2041,0352
2067,2060,2030,2049,0345
2199,2050,2035,2056,0338
1973,2074,2047,2065,0331
2030,2094,2066,2079,0325
2270,2107,2088,2101,0318
2042,2098,2075,2086,0312
1935,2082,2063,2071,0305
2120,2045,2026,2039,0299
2067,2076,2052,2068,0292
1841,2043,2032,2041,0286
2098,2069,2042,2041,0279
2131,2039,2030,2037,0273
1864,2020,1997,2007,0266
2044,2053,2050,2051,0260
2211,2064,2050,2062,0253
1982,2072,2057,2076,0247
1988,2066,2059,2073,0241
2222,2054,2044,2076,0235
2064,2099,2086,2095,0228
1968,2102,2080,2091,0222
2187,2058,2042,2060,0216
2126,2059,2053,2066,0211
1896,2042,2022,2032,0205
2070,2033,2019,2031,0199
2189,2066,2071,2072,0194
1938,2070,2041,2050,0188
2021,2052,2057,2061,0183
2212,2064,2029,2027,0178
1970,2056,2057,2069,0173
1951,2065,2042,2044,0168
2195,2065,2062,2078,0163
2066,2076,2040,2074,0158
1910,2064,2025,2038,0154
2169,2075,2075,2078,0149
2141,2080,2048,2066,0145
1891,2061,2055,2073,0141
2079,2058,2044,2069,0137
2183,2056,2031,2034,0133
1919,2044,2048,2046,0129
1979,2040,2035,2039,0126
2186,2035,2022,2027,0123
1966,2021,2017,2024,0119
1883,2008,2002,2012,0117
2213,2076,2055,2061,0114
2082,2055,2039,2047,0112
1892,2043,2027,2035,0110
2117,2036,2031,2032,0108
