1897 2068 2049 2054 0
2042 2062 2008 2023 0
2236 2069 2037 2050 0
1949 2073 2048 2038 0
1957 2071 2054 2059 0
2189 2026 2004 2020 0
2030 2047 2024 2038 0
1923 2084 2050 2052 0
2192 2055 2052 2078 0
2126 2050 2026 2049 0
1897 2061 2047 2060 0
2102 2066 2060 2060 0
2190 2055 2047 2040 0
1930 2056 2038 2063 0
2027 2078 2055 2057 0
2214 2057 2041 2052 0
1993 2073 2047 2043 0
1928 2028 2053 2029 0
2220 2116 2054 2041 0
2062 2063 2051 2057 0
1918 2067 2041 2077 0
2147 2054 2024 2063 0
2128 2054 2048 2042 0
1914 2070 2063 2050 0
2071 2048 2027 2031 0
2208 2079 2039 2053 0
1942 2060 2066 2071 0
2005 2061 2042 2054 0
2203 2053 2049 2060 0
2002 2056 2035 2042 0
1936 2051 2065 2049 0
2187 2055 2020 2054 0
2104 2066 2046 2068 0
1909 2065 2052 2089 0
2108 2024 2003 1983 0
2150 2046 2050 2049 0
1924 2096 2047 2056 0
2084 2086 2067 2075 0
2231 2101 2069 2082 0
1952 2057 2029 2039 0
1992 2063 2023 2051 0
2233 2112 2081 2087 0
2046 2082 2070 2079 0
1916 2050 2050 2021 0
2183 2072 2039 2040 0
2102 2062 2053 2072 0
1884 2035 2026 2037 0
2081 2032 2020 2025 0
2135 2023 2013 2026 0
1877 2008 1990 1984 0
1989 2023 1989 2004 0
2192 2059 2019 2013 0
1959 2046 2032 2056 0
1941 2029 2028 2031 0
2187 2044 2029 2048 0
2047 2068 2049 2049 0
1934 2072 2016 2026 0
2175 2062 2055 2075 0
2122 2058 2042 2069 0
1906 2062 2052 2068 0
2099 2071 2038 2057 0
2194 2088 2066 2081 0
1942 2056 2049 2051 0
2027 2068 2048 2056 0
2208 2065 2060 2061 0
2022 2084 2075 2065 0
1962 2052 2045 2059 0
2212 2076 2043 2049 0
2088 2073 2062 2047 0
1944 2093 2128 2127 0
2168 2084 2055 2080 0
2163 2068 2052 2072 0
1923 2071 2034 2061 0
2078 2071 2050 2055 0
2200 2066 2051 2055 0
1950 2062 2068 2067 0
2028 2102 2073 2067 0
2196 2067 2074 2076 0
2023 2058 2040 2045 0
1920 2027 2037 2033 0
2171 2050 2008 2028 0
2078 2060 2057 2067 0
1903 2050 2040 2035 0
2100 2027 2007 1990 0
2147 2064 2037 2050 0
1908 2053 2046 2070 0
2044 2046 2026 2027 0
2185 2050 2061 2058 0
1946 2044 1980 1984 0
1976 2072 2053 2071 0
2198 2044 2036 2059 0
2027 2054 2030 2046 0
1896 2034 2014 1998 0
2160 2046 2014 2018 0
2107 2049 2040 2053 0
1904 2063 2053 2072 0
2090 2057 2032 2037 0
2196 2080 2062 2070 0
1938 2071 2055 2054 0
2058 2102 2089 2097 0
2237 2095 2069 2072 0
2024 2100 2066 2076 0
1976 2080 2070 2100 0
2263 2127 2115 2107 0
2116 2117 2081 2097 0
1973 2114 2106 2115 0
2186 2100 2082 2076 0
2179 2104 2095 2111 0
1949 2103 2106 2106 0
2120 2092 2078 2080 0
2197 2073 2048 2058 0
1931 2056 2042 2042 0
1970 2024 2017 2021 0
2170 2015 1986 1987 0
1983 2049 2052 2066 0
1919 2046 2009 2017 0
2184 2059 2041 2068 0
2064 2051 2020 2033 0
1878 2042 2036 2044 0
2103 2020 2020 2015 0
2098 2004 2002 2008 0
1898 2046 2026 2028 0
2032 2043 2031 2016 0
2188 2066 2056 2055 0
1946 2047 1986 2002 0
1995 2069 2061 2077 0
2188 2055 2023 2041 0
1997 2026 2015 2016 0
1893 2022 2019 2023 0
2143 2037 2014 2028 0
2076 2036 2009 2020 0
1881 2016 2009 2027 0
2064 2005 1997 1996 0
2106 2003 1990 1990 0
1844 1980 1977 1977 0
1942 1965 1935 1947 0
2126 1982 1962 1978 0
1886 1981 1983 1969 0
1899 1979 1952 1968 0
2157 2022 2001 2032 0
2012 2032 2003 2017 0
1903 2034 2016 2024 0
2153 2052 2040 2045 0
2103 2038 2035 2039 0
1898 2054 2037 2047 0
2097 2061 2052 2061 0
2191 2068 2048 2062 0
1952 2064 2042 2052 0
2023 2062 2046 2053 0
2225 2072 2070 2078 0
2004 2072 2054 2061 0
1946 2060 2046 2054 0
2220 2085 2069 2070 0
2082 2075 2064 2058 0
1907 2050 2055 2061 0
2172 2066 2055 2065 0
2120 2041 2037 2056 0
1905 2057 2052 2059 0
2055 2040 2042 2036 0
2180 2053 2049 2055 0
1943 2058 2038 2050 0
2000 2052 2034 2055 0
2198 2052 2049 2073 0
2059 2103 2084 2093 0
1963 2088 2071 2080 0
2214 2097 2082 2078 0
2124 2091 2070 2080 0
1919 2070 2069 2080 0
2130 2063 2046 2042 0
2130 2029 2032 2045 0
1868 2004 1980 1993 0
1998 2012 1981 2021 0
2164 2031 2009 2025 0
1978 2073 2077 2087 0
1997 2082 2083 2095 0
2262 2117 2105 2095 0
2099 2125 2138 2129 0
1990 2122 2081 2085 0
2220 2098 2103 2110 0
2174 2118 2104 2109 0
1955 2105 2092 2088 0
2146 2105 2082 2096 0
2225 2108 2096 2111 0
1984 2114 2090 2096 0
2071 2105 2099 2101 0
2272 2118 2131 2124 0
2048 2127 2103 2128 0
2001 2101 2082 2089 0
2238 2089 2088 2099 0
2080 2073 2046 2052 0
1942 2072 2077 2079 0
2170 2080 2103 2118 0
2126 2048 2020 2028 0
1871 2022 1993 2014 0
2039 2018 1982 2003 0
2154 2030 2017 2039 0
1906 2028 2027 2048 0
1984 2028 2024 2031 0
2191 2041 2006 2016 0
1986 2044 2015 2016 0
1921 2047 2026 2044 0
2188 2040 2014 2044 0
2071 2053 2025 2046 0
1897 2054 2025 2031 0
2141 2070 2060 2066 0
2176 2089 2083 2112 0
1936 2075 2052 2050 0
2082 2072 2079 2112 0
2196 2063 2051 2067 0
1960 2068 2052 2075 0
1982 2059 2037 2042 0
2210 2070 2057 2053 0
2071 2093 2090 2101 0
1944 2072 2070 2064 0
2216 2103 2112 2130 0
2128 2083 2068 2075 0
1908 2051 2041 2061 0
2089 2042 2029 2041 0
2165 2054 2048 2046 0
1928 2068 2055 2068 0
2048 2069 2061 2056 0
2237 2096 2081 2088 0
2004 2090 2053 2061 0
2007 2098 2075 2082 0
2270 2120 2100 2117 0
2106 2124 2108 2115 0
1936 2083 2075 2081 0
2152 2037 2030 2018 0
2062 2002 2010 2025 0
1791 1959 1964 1985 0
1966 1933 1897 1916 0
2070 1953 1925 1891 0
1828 1969 1961 1973 0
1955 2002 1986 2019 0
2180 2031 2015 2042 0
1983 2049 2029 2043 0
1951 2056 2057 2059 0
2202 2063 2045 2048 0
2068 2051 2061 2077 0
1895 2030 2030 2041 0
2125 2036 2020 2032 0
2140 2051 2014 2038 0
1894 2049 2053 2088 0
2081 2061 2047 2053 0
2198 2079 2039 2066 0
1936 2062 2061 2072 0
1990 2057 2019 2054 0
2212 2063 2021 2040 0
2007 2054 2035 2049 0
1919 2055 2030 2045 0
2204 2081 2055 2066 0
2095 2058 2038 2041 0
1904 2056 2045 2058 0
2128 2057 2044 2054 0
2164 2069 2057 2061 0
1912 2048 2040 2045 0
2070 2084 2063 2078 0
2238 2081 2073 2074 0
1982 2084 2062 2063 0
2004 2085 2045 2065 0
2236 2100 2084 2102 0
2094 2117 2100 2120 0
1976 2120 2087 2100 0
2251 2133 2112 2123 0
2188 2127 2104 2127 0
1950 2103 2075 2074 0
2138 2090 2069 2079 0
2166 2057 2032 2033 0
1884 2021 2001 2002 0
1959 1984 1967 1976 0
2101 1953 1951 1973 0
1894 1980 1947 1964 0
1862 1962 1952 1964 0
2118 1976 1970 1978 0
1998 2019 2000 1999 0
1838 1999 1981 1988 0
2114 2017 1986 2012 0
2102 2044 2016 2021 0
1862 2026 2016 2035 0
2061 2036 2026 2038 0
2181 2043 2039 2054 0
1926 2053 2026 2030 0
2008 2067 2021 2029 0
2218 2060 2053 2060 0
2013 2071 2056 2066 0
1957 2081 2074 2076 0
2204 2075 2055 2085 0
2102 2077 2060 2073 0
1913 2069 2047 2049 0
2141 2065 2054 2060 0
2183 2085 2074 2076 0
1909 2050 2048 2058 0
2066 2063 2062 2051 0
2230 2079 2055 2083 0
1952 2067 2063 2073 0
1998 2059 2055 2078 0
2220 2054 2044 2076 0
2037 2086 2057 2066 0
1940 2083 2055 2056 0
2196 2080 2063 2054 0
2115 2058 2048 2056 0
1946 2111 2121 2122 0
2112 2057 2040 2053 0
2180 2061 2023 2050 0
1901 2041 2015 2041 0
2013 2046 2013 2039 0
2200 2052 2044 2056 0
1947 2030 2028 2033 0
1958 2044 2045 2054 0
2191 2044 2045 2058 0
2041 2053 2048 2048 0
1900 2048 2038 2046 0
2165 2044 2043 2034 0
2119 2052 2029 2039 0
1891 2059 2046 2046 0
2093 2056 2069 2080 0
2209 2081 2057 2077 0
1924 2070 2048 2060 0
2015 2068 2048 2066 0
2229 2066 2050 2055 0
1985 2062 2056 2057 0
1946 2077 2049 2057 0
2215 2076 2056 2065 0
2076 2065 2056 2062 0
1900 2060 2051 2053 0
2159 2065 2050 2058 0
2131 2047 2039 2050 0
1935 2071 2044 2045 0
2073 2054 2068 2079 0
2204 2065 2048 2043 0
1927 2043 2032 2033 0
1977 2036 2000 2007 0
2215 2056 2046 2062 0
2024 2075 2029 2059 0
1955 2080 2080 2095 0
2201 2062 2066 2096 0
2112 2086 2055 2064 0
1913 2069 2062 2081 0
2139 2050 2051 2065 0
2165 2064 2053 2052 0
1903 2062 2058 2058 0
2039 2047 2051 2061 0
2229 2080 2072 2066 0
1945 2056 2035 2051 0
1969 2061 2044 2055 0
2216 2052 2047 2054 0
2048 2073 2054 2044 0
1917 2071 2059 2080 0
2178 2064 2035 2055 0
2119 2060 2048 2070 0
1881 2045 2023 2032 0
2092 2053 2036 2047 0
2179 2058 2045 2052 0
1910 2050 2046 2052 0
2005 2037 2036 2041 0
2203 2052 2040 2032 0
1976 2056 2038 2043 0
1960 2067 2008 2021 0
2212 2064 2052 2089 0
2033 2040 2018 2032 0
1908 2078 2048 2062 0
2148 2040 2039 2047 0
2132 2058 2034 2027 0
1898 2061 2039 2047 0
2082 2064 2061 2068 0
2192 2060 2048 2052 0
1921 2042 2029 2038 0
1986 2043 2027 2040 0
2223 2061 2046 2049 0
2002 2063 2067 2073 0
1937 2061 2044 2055 0
2196 2064 2047 2056 0
2085 2065 2040 2059 0
1886 2050 2034 2041 0
2133 2046 2047 2041 0
2164 2063 2051 2064 0
1897 2059 2033 2042 0
2055 2052 2042 2068 0
2204 2049 2031 2041 0
1942 2058 2039 2045 0
1979 2060 2038 2048 0
2221 2058 2045 2049 0
2028 2068 2062 2063 0
1914 2056 2025 2033 0
2171 2045 2045 2059 0
2128 2089 2075 2090 0
1908 2073 2050 2053 0
2143 2089 2112 2123 0
2194 2073 2053 2076 0
1915 2060 2040 2052 0
2030 2055 2040 2053 0
2212 2053 2051 2057 0
1996 2082 2055 2062 0
1965 2057 2060 2068 0
2215 2060 2048 2054 0
2048 2053 2037 2050 0
1887 2026 2005 1999 0
2158 2050 2030 2045 0
2126 2053 2034 2048 0
1904 2051 2028 2049 0
2087 2048 2022 2034 0
2201 2074 2064 2067 0
1918 2057 2051 2063 0
2018 2065 2052 2058 0
2207 2048 2039 2046 0
2012 2076 2053 2067 0
1934 2063 2036 2045 0
2213 2064 2048 2054 0
2088 2064 2064 2066 0
1889 2058 2040 2040 0
2153 2067 2046 2052 0
2150 2060 2048 2041 0
1902 2063 2039 2044 0
2052 2047 2037 2053 0
2213 2065 2057 2056 0
1930 2049 2041 2054 0
1983 2061 2049 2055 0
2218 2056 2043 2056 0
2014 2062 2035 2044 0
1925 2060 2051 2068 0
2188 2045 2041 2053 0
2099 2059 2044 2055 0
1880 2053 2039 2043 0
2128 2062 2060 2079 0
2169 2057 2042 2050 0
1919 2075 2046 2056 0
2039 2051 2047 2058 0
2220 2074 2080 2079 0
1952 2057 2012 2028 0
1960 2060 2045 2065 0
2215 2056 2037 2046 0
2049 2065 2052 2048 0
1902 2053 2050 2066 0
2181 2064 2047 2062 0
2120 2067 2044 2047 0
1885 2064 2031 2040 0
2096 2050 2036 2050 0
2209 2069 2039 2057 0
1918 2060 2039 2053 0
2006 2046 2014 2020 0
2262 2097 2054 2071 0
1969 2056 2038 2038 0
1949 2065 2055 2060 0
2212 2063 2048 2054 0
2049 2052 2043 2047 0
1897 2071 2050 2048 0
2158 2058 2050 2048 0
2143 2059 2036 2044 0
1893 2052 2039 2045 0
2067 2051 2054 2052 0
2200 2062 2046 2040 0
1916 2058 2052 2062 0
1983 2049 2010 2033 0
2208 2054 2039 2055 0
2008 2065 2055 2068 0
1916 2045 2039 2022 0
2196 2058 2050 2061 0
2086 2063 2034 2036 0
1877 2047 2056 2070 0
2143 2062 2057 2059 0
2167 2068 2040 2043 0
1901 2052 2032 2046 0
2052 2057 2031 2025 0
2206 2054 2020 2050 0
1963 2072 2048 2064 0
1964 2056 2024 2047 0
2225 2062 2032 2040 0
2022 2053 2046 2061 0
1908 2045 2041 2059 0
2192 2072 2036 2049 0
2115 2059 2054 2062 0
1890 2060 2047 2052 0
2112 2052 2037 2049 0
2184 2060 2059 2060 0
1906 2057 2046 2060 0
2018 2054 2039 2038 0
2226 2078 2028 2044 0
1958 2049 2036 2038 0
1945 2054 2058 2068 0
2211 2050 2053 2067 0
2069 2071 2076 2096 0
1910 2067 2038 2047 0
2178 2068 2027 2041 0
2132 2071 2049 2059 0
1899 2064 2049 2053 0
2074 2036 2039 2040 0
2210 2073 2040 2056 0
1919 2058 2032 2050 0
2009 2059 2040 2054 0
2211 2052 2041 2041 0
1981 2054 2038 2033 0
1931 2048 2075 2080 0
2205 2059 2042 2054 0
2072 2054 2047 2055 0
1898 2054 2041 2059 0
2164 2068 2061 2071 0
2157 2055 2041 2058 0
1903 2048 2019 2027 0
2074 2067 2043 2050 0
2213 2063 2045 2055 0
1943 2062 2042 2051 0
1980 2050 2049 2055 0
2234 2056 2063 2067 0
2023 2058 2045 2057 0
1924 2072 2053 2061 0
2201 2074 2079 2084 0
2095 2052 2037 2050 0
1872 2049 2051 2055 0
2123 2069 2027 2041 0
2172 2054 2013 2039 0
1903 2057 2025 2046 0
2015 2042 2020 2036 0
2214 2067 2047 2047 0
1957 2052 2055 2069 0
1958 2051 2036 2042 0
2219 2065 2043 2050 0
2032 2064 2041 2019 0
1901 2061 2094 2095 0
2192 2064 2025 2047 0
2120 2063 2048 2065 0
1882 2051 2033 2042 0
2098 2054 2054 2053 0
2198 2074 2055 2066 0
1915 2057 2048 2051 0
2022 2064 2050 2052 0
2230 2061 2056 2062 0
1986 2063 2052 2056 0
1939 2056 2044 2049 0
2213 2052 2039 2040 0
2063 2061 2044 2047 0
1902 2057 2034 2045 0
2147 2035 2015 2007 0
2158 2080 2106 2120 0
1892 2052 2021 2033 0
2075 2055 2042 2064 0
2222 2072 2043 2056 0
1931 2054 2048 2049 0
1976 2042 2040 2051 0
2258 2090 2052 2068 0
2016 2055 2049 2055 0
1919 2053 2042 2050 0
2173 2049 2033 2042 0
2103 2076 2057 2063 0
1889 2064 2044 2038 0
2141 2061 2041 2050 0
2176 2054 2053 2058 0
1888 2052 2053 2054 0
2042 2050 2030 2040 0
2202 2058 2032 2048 0
1950 2067 2021 2037 0
1959 2067 2052 2065 0
2194 2045 2042 2052 0
2031 2057 2042 2057 0
1920 2061 2049 2060 0
2176 2052 2051 2058 0
2128 2072 2058 2065 0
1873 2042 2048 2041 0
2095 2047 2031 2048 0
2182 2062 2050 2061 0
1919 2070 2041 2056 0
2032 2058 2037 2035 0
2221 2071 2067 2069 0
1973 2060 2040 2058 0
1950 2056 2037 2063 0
2209 2059 2045 2065 0
2049 2063 2038 2039 0
1892 2056 2055 2080 0
2173 2063 2041 2052 0
2137 2060 2061 2056 0
1914 2079 2018 2042 0
2068 2036 2031 2046 0
2216 2079 2048 2064 0
1917 2056 2030 2035 0
2007 2050 2064 2050 0
2226 2057 2048 2054 0
1993 2064 2051 2062 0
1930 2052 2050 2049 0
2205 2057 2049 2058 0
2076 2064 2034 2045 0
1895 2059 2050 2054 0
2149 2064 2050 2064 0
2165 2064 2057 2058 0
1893 2049 2041 2051 0
2037 2027 2020 2029 0
2197 2038 2039 2037 0
1937 2048 2047 2063 0
1969 2035 2035 2025 0
2225 2076 2036 2062 0
2019 2063 2046 2060 0
1910 2048 2053 2077 0
2189 2061 2045 2057 0
2094 2065 2048 2041 0
1883 2061 2058 2076 0
2127 2057 2054 2061 0
2175 2060 2042 2056 0
1906 2065 2042 2049 0
2024 2052 2031 2042 0
2210 2048 2039 2044 0
1957 2053 2045 2052 0
1947 2041 2035 2039 0
2219 2056 2053 2060 0
2039 2059 2044 2051 0
1902 2061 2060 2071 0
2175 2064 2044 2051 0
2123 2055 2057 2059 0
1897 2067 2035 2072 0
2096 2060 2052 2059 0
2220 2079 2056 2084 0
1919 2040 2031 2037 0
2024 2071 2064 2077 0
2231 2078 2061 2079 0
1990 2073 2039 2045 0
1939 2053 2053 2061 0
2251 2094 2065 2072 0
2067 2059 2033 2047 0
1909 2072 2050 2059 0
2158 2059 2039 2048 0
2146 2053 2048 2051 0
1890 2055 2043 2026 0
2084 2059 2095 2085 0
2207 2058 2012 2013 0
1932 2057 2045 2053 0
1995 2068 2055 2076 0
2218 2060 2048 2050 0
2011 2062 2056 2057 0
1942 2076 2058 2067 0
2188 2056 2043 2045 0
2088 2058 2041 2046 0
1894 2053 2043 2048 0
2098 2033 2017 2029 0
2187 2079 2054 2062 0
1904 2064 2046 2056 0
2032 2058 2040 2052 0
2226 2074 2036 2039 0
1927 2037 2020 2046 0
1994 2088 2051 2074 0
2218 2060 2039 2062 0
2024 2065 2048 2058 0
1916 2053 2039 2054 0
2176 2054 2043 2063 0
2104 2051 2035 2049 0
1895 2048 2036 2048 0
2095 2044 2030 2034 0
2175 2062 2046 2047 0
1922 2063 2014 2020 0
2028 2056 2042 2056 0
2220 2056 2034 2050 0
1983 2072 2051 2058 0
1944 2057 2050 2051 0
2214 2066 2047 2057 0
2056 2064 2034 2041 0
1920 2072 2050 2058 0
2153 2052 2037 2043 0
2144 2074 2044 2063 0
1884 2049 2058 2065 0
2072 2046 2050 2065 0
2210 2072 2031 2052 0
1939 2063 2034 2043 0
2016 2067 2040 2053 0
2227 2060 2047 2062 0
1993 2058 2029 2042 0
1916 2052 2037 2040 0
2201 2052 2042 2057 0
2070 2060 2043 2044 0
1882 2055 2045 2054 0
2135 2054 2055 2055 0
2146 2055 2031 2052 0
1882 2047 2031 2033 0
2047 2043 2043 2045 0
2223 2075 2037 2042 0
1919 2042 2042 2052 0
1999 2067 2042 2049 0
2211 2044 2045 2043 0
2031 2070 2052 2054 0
1917 2060 2033 2041 0
2189 2064 2041 2045 0
2101 2057 2041 2055 0
1878 2047 2036 2050 0
2113 2053 2048 2052 0
2175 2061 2046 2061 0
1928 2065 2046 2058 0
2022 2040 2033 2043 0
2215 2059 2034 2048 0
1964 2057 2042 2043 0
1938 2044 2026 2042 0
2218 2057 2042 2045 0
2053 2075 2072 2090 0
1899 2056 2045 2055 0
2180 2060 2052 2065 0
2131 2073 2019 2048 0
1889 2061 2051 2055 0
2105 2058 2042 2054 0
2201 2068 2054 2064 0
1931 2064 2057 2066 0
2001 2046 2036 2053 0
2225 2056 2038 2056 0
1983 2055 2041 2056 0
1938 2057 2047 2053 0
2222 2061 2063 2071 0
2074 2058 2035 2038 0
1882 2061 2051 2045 0
2164 2076 2052 2059 0
2164 2072 2095 2088 0
1900 2060 2059 2072 0
2077 2067 2035 2032 0
2217 2066 2057 2069 0
1926 2052 2067 2081 0
1994 2046 2030 2053 0
2228 2071 2040 2054 0
2012 2070 2054 2062 0
1903 2058 2034 2044 0
2200 2058 2044 2052 0
2091 2057 2044 2057 0
1886 2054 2042 2047 0
2128 2052 2045 2057 0
2173 2058 2048 2056 0
1906 2067 2043 2050 0
2038 2056 2048 2049 0
2228 2076 2070 2067 0
1940 2050 2037 2048 0
1962 2063 2043 2061 0
2223 2062 2038 2065 0
2027 2050 2043 2041 0
1897 2051 2046 2049 0
2167 2050 2052 2063 0
2120 2063 2046 2061 0
1871 2042 2039 2042 0
2114 2058 2030 2029 0
2200 2070 2046 2051 0
1906 2061 2048 2048 0
1996 2031 2022 2038 0
2229 2068 2050 2056 0
1978 2068 2056 2068 0
1945 2063 2040 2046 0
2198 2046 2045 2046 0
2037 2044 2030 2048 0
1903 2067 2053 2063 0
2154 2044 2033 2049 0
2147 2055 2042 2050 0
1893 2060 2044 2051 0
2073 2045 2042 2053 0
2202 2054 2041 2058 0
1928 2063 2042 2055 0
1994 2060 2038 2046 0
2220 2060 2042 2048 0
2002 2058 2039 2047 0
1914 2042 2045 2052 0
2195 2056 2052 2059 0
2096 2074 2066 2072 0
1893 2062 2037 2053 0
2143 2070 2052 2072 0
2155 2050 2023 2046 0
1914 2071 2050 2064 0
2041 2048 2033 2043 0
2220 2070 2025 2029 0
1957 2074 2065 2075 0
1963 2051 2025 2041 0
2215 2065 2046 2060 0
1997 2043 2016 2030 0
1917 2052 2042 2045 0
2203 2069 2051 2055 0
2128 2068 2084 2090 0
1880 2047 2049 2064 0
2116 2055 2048 2058 0
2174 2055 2037 2045 0
1916 2069 2049 2049 0
2030 2039 2055 2057 0
2195 2046 2040 2058 0
1961 2049 2015 2026 0
1948 2049 2063 2059 0
2216 2054 2047 2044 0
2051 2066 2040 2045 0
1913 2068 2044 2063 0
2165 2057 2032 2045 0
2134 2059 2036 2046 0
1897 2059 2056 2067 0
2088 2055 2027 2037 0
2195 2058 2045 2041 0
1903 2050 2059 2065 0
2012 2062 2035 2058 0
2217 2057 2039 2050 0
1991 2062 2038 2049 0
1949 2082 2052 2057 0
2183 2040 2042 2047 0
2067 2047 2048 2060 0
1893 2056 2042 2046 0
2154 2074 2052 2068 0
2159 2076 2051 2048 0
1899 2053 2094 2096 0
2064 2055 2028 2050 0
2213 2069 2045 2069 0
1931 2053 2021 2046 0
1973 2053 2047 2048 0
2216 2061 2062 2049 0
2002 2057 2030 2040 0
1925 2058 2047 2059 0
2165 2041 2032 2040 0
2137 2089 2067 2075 0
1888 2054 2048 2054 0
2106 2041 2038 2051 0
2192 2063 2060 2069 0
1898 2058 2039 2048 0
2046 2058 2052 2061 0
2223 2059 2030 2047 0
1958 2069 2039 2044 0
1938 2046 2038 2040 0
2221 2071 2043 2042 0
2033 2055 2015 2019 0
1913 2067 2044 2061 0
2178 2063 2033 2056 0
2101 2053 2036 2042 0
1894 2055 2050 2053 0
2101 2055 2048 2057 0
2203 2065 2052 2061 0
1914 2047 2041 2055 0
2014 2051 2047 2050 0
2228 2067 2050 2053 0
1972 2057 2032 2036 0
1964 2067 2045 2053 0
2204 2057 2052 2041 0
2048 2055 2042 2055 0
1896 2048 2043 2056 0
2155 2049 2037 2052 0
2150 2078 2038 2059 0
1887 2049 2045 2059 0
2068 2053 2031 2042 0
2191 2054 2051 2054 0
1935 2064 2070 2065 0
1980 2049 2041 2039 0
2231 2069 2054 2067 0
2008 2071 2044 2039 0
1937 2070 2061 2066 0
2207 2058 2051 2064 0
2098 2066 2048 2058 0
1899 2058 2048 2055 0
2138 2065 2054 2063 0
2177 2067 2047 2052 0
1901 2062 2047 2060 0
2058 2068 2042 2050 0
2209 2053 2047 2052 0
1960 2060 2029 2042 0
1974 2055 2051 2050 0
2238 2076 2065 2066 0
2034 2056 2058 2065 0
1911 2064 2049 2056 0
2179 2054 2047 2061 0
2109 2055 2033 2042 0
1882 2058 2057 2058 0
2102 2047 2033 2036 0
2188 2070 2063 2081 0
1917 2066 2027 2039 0
2027 2053 2023 2042 0
2220 2061 2052 2061 0
1967 2060 2050 2059 0
1947 2052 2046 2057 0
2207 2053 2039 2056 0
2039 2050 2045 2064 0
1913 2068 2052 2059 0
2172 2067 2056 2063 0
2144 2075 2056 2059 0
1884 2057 2043 2041 0
2083 2049 2042 2048 0
2196 2056 2048 2057 0
1940 2073 2048 2059 0
2006 2055 2040 2055 0
2224 2064 2036 2051 0
1986 2059 2042 2054 0
1923 2048 2039 2050 0
2204 2058 2033 2048 0
2080 2067 2039 2055 0
1873 2043 2027 2038 0
2166 2074 2061 2074 0
2166 2069 2050 2058 0
1904 2070 2047 2057 0
2061 2052 2039 2057 0
2196 2044 2026 2041 0
1924 2046 2031 2031 0
1965 2039 2025 2044 0
2208 2041 2034 2049 0
2007 2048 2023 2033 0
1909 2053 2041 2055 0
2173 2047 2037 2050 0
2113 2065 2047 2060 0
1883 2053 2040 2058 0
2120 2057 2040 2049 0
2155 2049 2038 2053 0
1914 2088 2052 2060 1
2040 2049 2047 2054 1
2239 2086 2073 2080 1
1976 2070 2048 2052 1
1960 2061 2044 2062 1
2223 2072 2055 2065 1
2056 2075 2053 2066 1
1902 2049 2048 2047 1
2163 2060 2044 2043 1
2130 2065 2052 2057 1
1895 2070 2053 2055 1
2100 2064 2049 2058 1
2213 2082 2062 2088 1
1926 2068 2053 2062 1
2015 2050 2027 2021 1
2231 2071 2037 2057 1
1982 2044 2038 2045 1
1944 2054 2042 2052 1
2212 2062 2052 2054 1
2040 2042 2035 2026 1
1906 2066 2063 2100 1
2180 2073 2068 2082 1
2163 2071 2056 2068 1
1890 2056 2041 2050 1
2064 2045 2045 2042 1
2201 2059 2039 2053 1
1940 2057 2041 2048 1
1983 2043 2044 2048 1
2226 2070 2036 2040 1
2014 2071 2055 2072 1
1929 2078 2042 2051 1
2199 2062 2048 2061 1
2100 2066 2057 2067 1
1892 2063 2054 2060 1
2128 2064 2044 2050 2
2174 2075 2046 2052 2
1878 2048 2029 2028 2
2029 2052 2026 2036 2
2196 2051 2028 2045 2
1955 2071 2038 2045 2
1958 2043 2042 2052 2
2215 2058 2038 2046 2
2006 2028 2020 2033 2
1921 2060 2030 2044 2
2160 2032 2022 2028 2
2116 2066 2047 2054 2
1881 2034 2030 2038 2
2105 2046 2016 2036 2
2177 2051 2028 2044 2
1896 2031 2028 2034 3
2012 2033 2010 2019 3
2205 2041 2043 2057 3
1974 2060 2042 2056 3
1952 2058 2041 2051 3
2216 2063 2054 2061 3
2063 2066 2057 2067 3
1899 2049 2039 2046 3
2183 2083 2076 2088 3
2161 2078 2069 2086 3
1898 2055 2064 2073 3
2089 2064 2044 2050 3
2209 2067 2043 2057 3
1920 2060 2036 2059 3
1994 2047 2029 2049 3
2224 2056 2022 2042 3
1988 2058 2047 2048 3
1935 2064 2059 2080 3
2226 2064 2059 2059 3
2095 2081 2055 2062 3
1877 2048 2031 2027 3
2136 2043 2039 2037 3
2141 2044 2028 2028 3
1885 2054 2044 2051 3
2063 2050 2030 2039 3
2199 2053 2035 2039 3
1944 2068 2046 2059 3
1982 2055 2046 2053 3
2220 2068 2045 2058 3
2007 2051 2041 2046 3
1912 2059 2042 2050 3
2172 2047 2036 2052 3
2117 2071 2058 2066 3
1888 2054 2049 2055 3
2111 2054 2045 2055 3
2195 2080 2055 2065 3
1899 2059 2046 2048 3
2034 2054 2036 2046 3
2229 2063 2057 2073 3
1959 2056 2042 2055 3
1947 2057 2037 2050 3
2223 2060 2032 2045 3
2039 2060 2041 2053 3
1915 2067 2044 2053 3
2167 2058 2049 2057 3
2149 2069 2060 2068 3
1904 2063 2062 2070 3
2098 2061 2041 2054 3
2194 2061 2043 2055 3
1934 2093 2053 2072 3
2018 2070 2082 2085 3
2240 2079 2038 2051 3
2014 2073 2067 2091 3
1970 2101 2064 2076 3
2229 2087 2073 2077 3
2092 2077 2062 2066 3
1883 2055 2026 2036 3
2127 2035 2042 2050 3
2147 2064 2028 2043 3
1873 2035 2023 2031 3
2084 2065 2021 2043 3
2233 2084 2064 2080 3
1934 2061 2054 2053 3
1985 2053 2037 2040 3
2231 2061 2045 2042 3
1980 2039 2030 2036 3
1914 2041 2031 2029 3
2216 2067 2068 2081 3
2090 2063 2045 2064 3
1858 2034 2020 2036 3
2129 2051 2041 2031 3
2175 2066 2049 2048 3
1895 2052 2039 2039 3
2064 2058 2054 2059 3
2240 2078 2063 2076 3
1957 2074 2075 2090 3
1972 2066 2045 2062 3
2220 2052 2032 2036 3
2015 2060 2045 2050 3
1885 2043 2016 2029 3
2165 2030 2029 2042 3
2119 2053 2040 2051 3
1860 2039 2029 2028 3
2136 2076 2041 2054 3
2186 2058 2047 2060 3
1909 2064 2040 2056 3
2018 2056 2034 2046 3
2231 2064 2055 2065 3
1975 2064 2051 2064 3
1949 2061 2028 2036 3
2216 2057 2040 2054 3
2059 2063 2049 2060 3
1890 2053 2039 2050 3
2169 2064 2053 2062 3
2152 2063 2045 2057 3
1895 2071 2047 2060 3
2079 2044 2031 2037 3
2209 2065 2044 2039 3
1933 2062 2023 2046 3
2008 2069 2055 2077 3
2233 2070 2041 2059 3
1994 2063 2055 2068 3
1920 2052 2040 2047 3
2194 2055 2028 2046 3
2079 2061 2038 2048 3
1872 2047 2040 2048 3
2168 2063 2048 2056 3
2168 2063 2054 2059 3
1897 2060 2042 2051 3
2061 2053 2040 2049 3
2202 2049 2049 2056 3
1944 2062 2048 2053 3
1981 2055 2042 2042 3
2210 2045 2047 2063 3
2019 2062 2041 2048 3
1902 2055 2023 2025 3
2176 2043 2041 2064 3
2111 2065 2043 2051 3
1888 2060 2039 2053 3
2131 2064 2049 2060 3
2187 2064 2048 2052 3
1901 2056 2056 2051 3
2033 2054 2048 2049 3
2205 2047 2037 2046 3
2006 2092 2070 2075 3
1958 2058 2050 2056 3
2228 2076 2062 2068 3
2036 2042 2036 2048 3
1900 2053 2037 2055 3
2165 2064 2048 2054 3
2167 2095 2061 2062 3
1885 2042 2030 2039 3
2083 2048 2023 2034 3
2205 2076 2068 2082 3
1914 2052 2032 2046 3
2009 2061 2037 2056 3
2236 2076 2045 2055 3
1984 2065 2050 2060 3
1933 2058 2036 2054 3
2225 2072 2047 2062 3
2076 2069 2047 2067 3
1890 2063 2049 2062 3
2164 2063 2051 2078 3
2140 2051 2048 2046 3
1877 2057 2038 2037 3
2057 2044 2031 2022 3
2182 2029 2029 2028 3
1958 2086 2048 2061 3
1975 2058 2043 2041 3
2236 2088 2043 2047 3
2009 2049 2046 2056 3
1908 2042 2034 2049 3
2205 2065 2054 2068 3
2117 2078 2061 2066 3
1878 2050 2041 2043 3
2136 2058 2044 2057 3
2168 2058 2029 2047 3
1887 2050 2036 2047 3
2045 2056 2044 2054 3
2227 2066 2053 2062 3
1944 2055 2039 2044 3
1962 2053 2043 2052 3
2234 2079 2050 2057 3
2050 2085 2061 2055 3
1902 2063 2056 2059 3
2187 2054 2052 2059 3
2123 2069 2053 2056 3
1883 2058 2047 2049 3
2111 2043 2016 2040 3
2157 2027 1991 2008 3
1897 2044 2029 2047 3
2018 2059 2048 2052 3
2248 2080 2084 2075 3
1963 2044 2032 2038 3
1928 2042 2020 2022 3
2197 2044 2039 2041 3
2044 2047 2033 2039 3
1869 2036 2026 2030 3
2159 2052 2032 2043 3
2120 2051 2033 2045 3
1883 2060 2038 2047 3
2097 2052 2033 2039 3
2200 2053 2036 2045 3
1888 2042 2052 2064 3
2010 2077 2058 2065 3
2233 2065 2051 2065 3
1999 2080 2049 2067 3
1926 2062 2043 2056 3
2212 2068 2055 2071 3
2089 2070 2048 2060 3
1898 2071 2049 2055 3
2156 2062 2049 2054 3
2166 2061 2041 2056 3
1891 2058 2043 2054 3
2061 2054 2046 2051 3
2238 2077 2061 2068 3
1960 2065 2049 2058 3
1992 2072 2054 2067 3
2236 2078 2048 2046 3
2027 2074 2059 2062 3
1928 2076 2060 2068 4
2202 2061 2045 2067 4
2116 2071 2053 2069 4
1891 2067 2046 2058 4
2126 2054 2054 2061 4
2183 2066 2053 2060 4
1917 2068 2048 2060 4
2029 2042 2032 2033 4
2216 2056 2044 2048 4
1937 2041 2031 2040 4
1948 2050 2031 2045 4
2210 2051 2034 2048 4
2042 2063 2038 2064 4
1905 2061 2042 2047 4
2174 2059 2038 2054 4
2142 2074 2062 2066 4
1874 2048 2042 2044 4
2092 2043 2038 2048 4
2189 2053 2031 2045 4
1883 2041 2029 2038 4
1977 2026 2011 2018 4
2158 1984 1980 1995 4
1884 1968 1951 1957 4
1831 1968 1951 1964 4
2148 1996 1980 1984 4
2011 2012 1990 2000 4
1833 1995 1979 1985 4
2110 2004 1989 2001 4
2109 2034 2023 2036 4
1865 2050 2024 2040 4
2102 2079 2069 2082 4
2235 2093 2080 2079 4
1950 2082 2065 2072 5
2024 2085 2066 2074 5
2263 2100 2087 2097 5
2048 2110 2093 2102 5
1994 2120 2103 2119 5
2288 2138 2124 2134 5
2188 2161 2133 2139 5
1952 2129 2126 2131 5
2197 2118 2096 2100 5
2224 2111 2104 2109 5
1921 2092 2083 2091 5
2083 2086 2072 2074 5
2245 2063 2042 2058 5
1932 2032 2034 2036 5
1951 2039 2028 2042 5
2230 2061 2058 2080 5
2076 2088 2075 2087 5
1956 2106 2094 2099 5
2264 2126 2124 2125 5
2200 2127 2126 2144 5
1983 2160 2144 2160 5
2220 2159 2145 2156 5
2295 2166 2150 2152 5
2010 2162 2142 2146 5
2107 2140 2125 2131 5
2325 2157 2137 2148 5
2048 2134 2116 2125 5
1970 2090 2082 2091 5
2174 2026 2006 2016 5
1978 1988 1962 1973 5
1737 1917 1899 1914 5
2052 1962 1917 1930 5
1989 1923 1901 1921 5
1765 1948 1911 1942 5
1975 1944 1917 1947 5
2103 1955 1932 1954 5
1823 1963 1943 1956 5
1913 1975 1962 1971 5
2155 1983 1975 1978 5
1929 2000 1981 1982 5
1864 1999 1993 1994 5
2176 2034 2034 2033 5
2078 2056 2047 2049 5
1883 2053 2047 2043 5
2153 2071 2053 2055 5
2142 2049 2032 2051 5
1902 2067 2050 2061 5
2048 2047 2024 2034 5
2185 2054 2023 2039 5
1940 2059 2033 2051 5
1967 2048 2038 2051 5
2227 2066 2044 2057 5
2024 2068 2045 2045 5
1905 2050 2041 2044 5
2185 2051 2032 2044 5
2127 2071 2047 2055 5
1880 2053 2037 2050 5
2138 2075 2055 2064 5
2187 2066 2053 2065 5
1915 2076 2063 2071 5
2043 2068 2052 2064 5
2259 2085 2070 2077 5
1974 2072 2059 2066 5
1961 2066 2056 2063 5
2227 2069 2058 2066 5
2043 2062 2052 2066 5
1884 2052 2036 2056 5
2177 2055 2043 2061 5
2134 2071 2046 2062 5
1883 2050 2035 2044 5
2073 2023 2020 2030 5
2192 2056 2043 2057 5
1903 2047 2035 2041 5
2007 2043 2036 2045 5
2223 2050 2045 2050 5
1974 2072 2037 2048 5
1929 2049 2043 2043 5
2217 2056 2052 2058 5
2064 2076 2044 2050 5
1888 2056 2039 2045 5
2150 2048 2034 2048 5
2141 2052 2037 2037 5
1879 2052 2031 2036 5
2064 2058 2045 2064 5
2239 2085 2075 2073 5
1939 2061 2059 2066 4
2013 2081 2069 2075 4
2258 2090 2068 2072 4
2031 2090 2084 2089 4
1921 2083 2069 2073 4
2222 2081 2069 2081 4
2122 2093 2068 2070 4
1915 2087 2061 2070 4
2159 2093 2063 2075 4
2203 2104 2082 2103 4
1932 2095 2076 2082 4
2081 2085 2073 2073 4
2231 2095 2074 2074 4
1969 2082 2065 2063 4
1997 2090 2075 2079 4
2220 2055 2040 2053 4
2024 2057 2046 2054 4
1877 2028 2003 2025 4
2146 2028 2015 2037 4
2092 2037 2020 2036 4
1880 2043 2033 2040 4
2085 2028 2018 2015 4
2192 2050 2026 2035 4
1888 2029 2003 2013 4
2001 2034 2016 2035 4
2266 2100 2083 2104 4
2028 2113 2095 2104 4
2009 2127 2119 2124 4
2242 2082 2072 2083 4
2039 2021 2020 2026 4
1847 2022 2004 2016 4
2130 2037 2014 2028 4
2104 2012 2003 2014 4
1845 2012 2010 2019 4
2037 2012 1998 2002 4
2166 2031 1997 2007 4
1891 2025 2016 2034 4
1994 2035 2016 2025 4
2222 2052 2043 2053 4
1989 2058 2048 2056 4
1910 2030 2028 2048 4
2166 2023 2006 2021 4
2084 2064 2045 2048 4
1908 2057 2052 2058 4
2148 2058 2051 2060 4
2177 2070 2052 2061 4
1899 2057 2041 2052 4
2079 2068 2067 2074 4
2249 2094 2073 2083 4
1963 2069 2069 2081 4
2011 2091 2073 2090 4
2255 2090 2070 2078 4
2051 2090 2062 2068 4
1929 2074 2052 2058 4
2206 2078 2058 2069 4
2140 2110 2080 2085 4
1919 2074 2060 2047 4
2145 2081 2048 2053 4
2198 2080 2055 2069 4
1909 2055 2019 2052 4
1968 2011 2003 2012 4
2203 2039 2020 2032 4
1936 2036 2010 2020 4
1950 2049 2031 2039 4
2189 2032 2022 2035 4
2035 2056 2025 2053 4
1873 2024 2015 2024 4
2145 2032 2019 2025 4
2104 2036 2020 2029 4
1834 2015 1992 1997 4
2080 2037 2032 2033 4
2169 2028 2036 2032 4
1886 2020 2024 2024 4
1977 2023 2005 2026 4
2246 2075 2038 2054 4
1977 2058 2032 2046 4
1942 2064 2041 2059 4
2207 2056 2042 2049 4
2058 2054 2040 2048 4
1898 2055 2058 2058 4
2174 2072 2047 2049 4
2179 2086 2072 2078 4
1925 2084 2051 2074 4
2076 2072 2076 2066 4
2208 2061 2048 2062 4
1956 2080 2055 2069 4
1997 2072 2058 2068 4
2280 2100 2078 2092 4
2032 2068 2061 2079 4
1944 2088 2062 2079 4
2211 2081 2070 2084 4
2125 2090 2071 2085 4
1910 2066 2064 2075 4
2148 2096 2076 2084 4
2176 2072 2043 2059 4
1894 2046 2010 2034 4
2006 2021 1997 2009 4
2169 2029 2020 2026 4
1934 2039 2034 2038 4
1939 2030 2045 2037 4
2188 2031 2035 2028 4
2000 2032 2021 2016 4
1887 2020 2008 2018 4
2160 2035 2012 2029 4
2131 2073 2031 2054 4
1871 2047 2020 2031 4
2093 2054 2028 2039 4
2187 2058 2031 2048 4
1905 2053 1946 2022 4
2031 2058 1930 2020 4
2219 2052 1953 2038 5
1978 2071 2071 2077 5
1948 2068 2164 2100 5
2202 2046 2170 2074 5
2078 2077 2138 2076 5
1908 2061 2080 2051 5
2159 2055 2066 2069 5
2157 2075 2061 2075 5
1893 2069 2043 2055 5
2084 2063 2025 2048 5
2200 2071 2056 2067 6
1937 2059 1987 2040 6
1999 2064 1970 2028 6
2222 2070 1983 2052 6
1998 2056 2091 2079 6
1918 2052 2168 2100 6
2174 2045 2136 2065 7
2100 2086 2090 2066 7
1892 2056 2029 2039 7
2144 2074 2039 2059 7
2168 2072 2034 2057 7
1913 2075 2003 2038 7
2044 2041 1986 2033 8
2201 2065 2002 2041 8
1941 2054 2010 2043 8
1975 2048 1951 2027 8
2218 2058 1918 2026 9
2027 2060 1950 2037 9
1902 2039 2110 2073 9
2181 2060 2238 2071 9
2108 2060 2222 2065 9
1892 2059 2127 2053 10
2114 2052 2078 2062 10
2178 2060 2064 2062 10
1911 2057 2027 2042 10
2034 2059 2006 2054 11
2235 2072 2012 2066 11
1972 2061 1988 2044 11
1964 2063 2013 2051 11
2228 2071 1998 2068 12
2060 2077 2014 2073 12
1911 2068 2045 2074 12
2172 2076 2097 2084 12
2146 2077 2111 2076 12
1898 2060 2009 2035 13
2089 2047 1949 2024 13
2183 2045 1975 2020 13
1911 2045 2127 2082 13
1996 2050 2179 2074 13
2209 2052 2115 2052 14
1982 2049 2018 2034 14
1934 2053 1996 2036 14
2196 2053 1980 2046 14
2081 2068 2012 2056 15
1903 2059 1959 2021 15
2140 2044 1987 2038 15
2147 2056 2041 2052 15
1887 2055 2113 2061 15
2069 2073 2065 2074 16
2216 2075 1965 2050 16
1924 2047 1933 2053 16
1974 2049 2140 2074 16
2195 2048 2284 2080 16
2023 2068 2171 2048 17
1937 2061 2064 2047 17
2207 2071 2039 2055 17
2116 2078 2080 2077 17
1903 2060 2015 2041 18
2126 2058 1930 2026 18
2168 2053 1961 2042 18
1912 2053 2065 2067 19
2046 2053 2116 2083 19
2214 2063 2020 2043 19
1963 2059 1897 2012 20
1956 2046 1848 2017 20
2212 2060 2024 2077 21
2034 2063 2147 2057 21
1912 2056 2179 2082 21
2168 2056 2101 2057 22
2117 2051 2069 2054 22
1888 2050 2080 2060 22
2128 2056 2005 2016 23
2188 2071 2010 2063 23
1916 2061 2083 2076 23
2006 2049 2179 2075 24
2206 2051 2075 2050 24
1970 2053 1902 2014 25
1950 2061 1915 2036 25
2212 2061 2085 2085 25
2074 2071 2174 2117 26
1915 2063 2030 2047 26
2165 2056 1904 2021 27
2144 2058 1986 2031 27
1897 2073 2207 2125 27
2075 2063 2122 2047 28
2192 2057 1999 2021 28
1926 2043 1916 2000 29
1960 2035 2080 2053 29
2193 2057 2133 2068 29
2001 2066 2024 2058 30
1923 2055 1919 2017 30
2206 2069 1972 2045 31
2088 2070 2125 2070 31
1894 2056 2070 2048 31
2124 2053 2008 2039 32
2164 2058 2011 2044 32
1896 2055 2112 2088 33
2072 2072 2049 2068 33
2221 2071 1922 2037 33
1991 2088 1959 2046 34
1997 2071 2179 2117 34
2213 2062 2228 2085 35
2020 2050 2069 2016 35
1897 2034 1888 1968 35
2175 2052 1915 2009 36
2094 2066 2167 2106 36
1875 2059 2143 2107 37
2104 2057 2021 2038 37
2186 2070 1939 2054 37
1918 2065 2013 2056 38
2036 2071 2162 2096 38
2222 2069 2057 2042 38
1982 2048 1960 2031 39
1952 2047 2027 2037 39
2184 2049 2125 2060 40
2028 2050 2109 2060 40
1907 2052 2012 2017 40
2146 2046 1985 2033 41
2116 2056 2085 2082 41
1889 2063 2115 2071 41
2090 2065 2028 2069 42
2195 2059 1899 2034 42
1930 2052 1920 2040 42
1984 2038 2089 2041 43
2209 2056 2098 2071 43
2002 2069 1998 2027 44
1958 2062 1953 2022 44
2192 2057 2106 2087 44
2087 2079 2253 2112 44
1902 2068 2151 2093 45
2147 2064 2016 2042 45
2154 2056 2030 2054 46
1877 2042 2065 2055 46
2061 2051 2095 2066 46
2226 2076 1873 2014 46
1966 2068 1817 1989 47
2012 2079 1959 2034 47
2192 2052 2194 2120 48
2000 2059 2132 2070 48
1927 2048 1917 2000 48
2193 2080 1914 2041 49
2129 2094 2181 2110 49
1907 2087 2335 2149 49
2144 2076 2171 2086 50
2173 2053 1990 2030 50
1877 2028 1951 2044 50
2013 2035 2056 2019 51
2208 2043 1968 2018 51
1986 2079 1910 2012 52
2001 2106 2020 2101 52
2287 2137 2237 2161 52
2079 2100 2086 2111 53
1905 2051 1891 2000 53
2172 2049 1942 2011 54
2097 2041 2205 2084 54
1862 2036 2219 2045 54
2070 2017 1972 1996 55
2132 2005 1803 1959 55
1832 1995 1976 2003 56
1960 2017 2043 1994 56
2182 2028 1884 1954 57
1940 2029 1876 2000 57
1919 2047 2080 2073 57
2191 2055 2224 2116 58
2054 2065 2137 2073 58
1891 2046 1950 2015 59
2161 2051 2005 2060 59
2145 2067 2164 2074 60
1898 2072 2009 2037 60
2108 2070 1877 2013 61
2235 2080 2012 2090 61
1952 2082 2230 2123 61
2028 2093 2354 2160 62
2287 2125 2125 2120 62
2066 2127 2038 2141 63
2026 2133 2134 2136 63
2292 2155 2292 2184 64
2167 2149 2143 2123 64
1974 2138 1839 2054 65
2168 2075 1715 1995 65
2111 2015 2018 2023 66
1804 1978 2236 2038 67
1945 1942 2025 1968 67
2113 1958 1809 1922 68
1862 1983 1815 1935 68
1927 2013 2050 2029 69
2168 2025 2175 2053 69
2013 2048 2049 2037 70
1915 2042 1852 2006 70
2186 2056 2076 2070 71
2098 2059 2182 2097 71
1877 2050 2161 2032 72
2095 2033 1902 1965 72
2150 2031 1870 1987 73
1890 2026 2030 2016 73
2001 2043 2216 2083 74
2220 2076 2206 2127 74
1997 2072 2122 2080 75
1982 2072 1867 2034 75
2251 2074 1858 2036 76
2082 2081 1930 2022 76
1919 2078 2131 2060 77
2175 2073 2184 2106 77
2133 2068 1930 2038 78
1879 2039 1822 1950 78
2076 2048 2063 1998 79
2191 2068 2337 2142 79
1906 2058 2303 2128 80
2001 2050 2037 2071 80
2225 2060 1892 2009 81
1996 2062 1956 2010 81
1941 2068 2133 2070 82
2227 2076 1919 2018 82
2082 2080 1816 1964 83
1903 2065 2066 2073 83
2147 2063 2315 2135 83
2153 2066 2268 2159 84
1904 2069 1963 2059 84
2092 2069 1863 2030 85
2233 2069 2076 2076 85
1955 2063 2107 2016 86
1988 2057 2169 2085 86
2252 2069 2040 2048 87
2034 2066 1797 1998 87
1937 2066 1913 2064 87
2211 2075 2198 2084 88
2117 2094 2248 2143 88
1893 2081 2126 2105 89
2126 2064 1833 1969 89
2169 2046 1978 2048 89
1893 2080 2277 2116 90
2060 2076 2162 2100 90
2231 2074 2036 2054 91
1962 2060 1905 2003 91
1961 2061 1922 2047 91
2225 2062 2040 2061 92
2031 2055 2007 2033 92
1895 2054 2097 1983 92
2194 2060 2206 2122 93
2137 2080 2098 2094 93
1897 2058 1952 2058 94
2082 2046 1959 1992 94
2155 2036 2263 2091 94
1850 2022 2180 2060 95
1984 2000 1829 1966 95
2187 2005 1667 1912 95
1920 2009 2058 2038 96
1911 2035 2303 2093 96
2194 2046 2174 2080 97
2043 2048 1774 1958 97
1860 2019 1804 2007 97
2165 2064 2172 2076 98
2146 2075 2170 2084 98
1900 2076 1852 2020 98
2098 2055 1857 1994 99
2201 2066 2006 2060 99
1919 2073 2345 2089 99
1989 2065 2200 2128 99
2226 2053 1980 2067 100
1989 2048 2072 2056 100
1938 2075 2280 2103 100
2223 2087 2148 2039 101
2109 2076 1812 1983 101
1903 2067 1910 2041 102
2156 2077 2200 2127 102
2183 2085 2169 2105 102
1924 2069 1905 2010 103
2057 2049 1674 1963 103
2203 2052 2042 2068 103
1936 2045 2123 2070 104
1950 2046 2022 2060 104
2223 2047 2021 2061 104
2018 2063 2054 2044 105
1918 2074 2225 2064 105
2208 2079 2233 2102 105
2104 2064 2126 2079 106
1890 2050 1925 2044 106
2115 2043 1938 2028 106
2192 2063 2087 2080 107
1899 2068 2268 2093 107
2009 2048 2001 2055 107
2216 2045 1845 1999 108
1955 2046 2031 2019 108
1940 2054 2162 2054 108
2213 2069 2141 2084 109
2044 2057 1887 2047 109
1890 2029 1775 1959 110
2178 2058 2084 2080 110
2126 2064 2252 2137 110
1895 2070 2094 2103 111
2092 2044 1990 2004 111
2208 2054 1928 2006 111
1926 2072 2155 2112 112
2008 2066 2208 2100 112
2223 2040 1783 1932 112
1991 2039 1773 1953 113
1932 2067 2300 2180 113
2206 2077 2316 2168 113
2096 2085 2011 2074 114
1873 2028 1590 1883 114
2151 2061 2114 2092 114
2164 2080 2365 2134 115
1911 2080 2166 2046 115
2060 2049 1831 1997 115
2232 2069 2103 2078 116
1927 2059 2177 2105 116
1996 2074 2180 2130 116
2246 2049 1686 1952 117
2015 2055 1908 2051 117
1922 2077 2253 2155 117
2204 2084 2214 2094 118
2123 2079 2005 2044 118
1867 2026 1715 1978 118
2140 2062 2098 2076 119
2163 2066 2305 2114 119
1904 2064 2263 2096 119
2027 2032 1755 2011 119
2229 2052 1932 2060 120
1936 2056 2091 2041 120
1965 2058 2269 2034 120
2191 2046 2029 2040 120
2033 2046 1903 2027 121
1856 2023 1969 2063 121
2206 2090 2286 2083 121
2119 2045 1989 1993 121
1878 2072 2197 2112 121
2102 2038 1982 2047 122
2198 2054 1950 2047 122
1878 2048 1767 1975 122
2035 2062 2128 2093 122
2218 2072 2178 2065 123
1978 2089 2110 2067 123
1912 2002 1552 1932 123
2230 2072 2291 2146 123
2056 2076 2424 2148 123
1888 2063 2120 2023 123
2150 2033 1833 2013 124
2138 2040 1893 2007 124
1858 2054 2334 2117 124
2108 2089 2246 2184 124
2238 2078 2025 2057 124
1912 2063 2052 2069 124
2001 2060 2175 2070 125
2225 2047 1880 1997 125
1986 2069 2104 2070 125
1936 2062 1962 1998 125
2187 2049 2004 2032 125
2095 2061 2066 2086 125
1883 2050 2026 2032 126
2133 2044 1950 1995 126
2169 2057 1990 2041 126
1886 2037 1637 1941 126
2048 2015 1793 2055 126
2216 2072 2390 2067 126
1947 2088 2441 2106 126
1961 2076 2285 2108 126
2237 2049 1604 1934 127
2034 2039 1804 1996 127
1904 2094 2444 2134 127
2196 2093 2462 2183 127
2110 2072 2105 2077 127
1898 2054 1753 1999 127
2099 2023 1608 1926 127
2202 2075 2285 2145 127
1907 2068 2178 2068 128
2035 2071 2302 2101 128
2234 2061 1981 2037 128
1964 2052 1810 1996 128
1953 2053 1932 2007 128
2223 2067 2074 2048 128
2048 2058 2001 2061 128
1885 2047 1980 2034 128
2182 2070 1954 2072 128
2120 2057 1982 2048 128
1895 2060 2225 2138 128
2093 2056 2243 2065 128
2185 2054 1957 1995 128
1937 2085 2049 2053 128
2003 2084 1967 2035 128
2253 2104 2111 2111 128
1997 2056 1932 2035 128
1926 2063 1980 2023 128
2218 2054 2138 2064 128
2087 2079 2162 2086 128
1887 2061 2099 2074 128
2162 2064 1980 2066 128
2169 2055 1901 2005 128
1906 2068 2068 2066 128
2077 2071 2084 2078 128
2227 2092 2094 2066 128
1946 2068 2043 2048 128
1986 2053 1981 2039 128
2228 2063 2001 2036 128
2021 2074 1978 2047 128
1902 2050 1916 2034 128
2194 2058 2091 2054 128
2101 2067 2214 2110 127
1883 2068 2155 2070 127
2137 2071 2070 2100 127
2180 2067 1996 2052 127
1893 2062 2057 2042 127
2042 2058 2057 2029 126
2216 2057 2027 2048 126
1946 2051 2037 2060 126
1950 2068 2052 2056 126
2222 2055 2042 2049 126
2033 2050 1965 2021 125
1896 2049 1938 2030 125
2177 2066 2096 2077 125
2119 2061 2126 2079 125
1890 2058 2138 2072 125
2103 2060 2027 2033 124
2200 2058 1954 2029 124
1907 2052 1996 2030 124
2000 2049 1969 2023 124
2237 2082 2165 2128 123
1978 2060 2096 2065 123
1945 2072 2162 2112 123
2217 2062 2006 2048 123
2063 2065 2028 2066 122
1887 2053 2016 2043 122
2171 2056 2022 2043 122
2131 2055 2065 2035 121
1881 2055 2094 2061 121
2076 2055 2072 2050 121
2204 2057 2020 2043 120
1921 2049 2008 2039 120
1978 2048 2022 2037 120
2229 2063 2052 2065 119
2005 2059 2005 2048 119
1921 2048 1927 2015 119
2215 2062 2068 2079 118
2098 2071 2099 2100 118
1888 2073 2131 2092 118
2143 2056 1975 2007 117
2160 2048 1924 1994 117
1887 2048 2086 2078 116
2046 2056 2208 2148 116
2218 2066 2156 2080 115
1946 2064 2074 2048 115
1952 2064 2026 2024 114
2226 2058 2042 2048 114
2024 2061 1989 2049 113
1911 2055 1988 2031 113
2187 2061 2035 2050 113
2113 2061 2027 2048 112
1884 2063 2031 2053 112
2105 2062 2027 2044 111
2190 2060 2015 2036 111
1891 2053 2036 2046 111
2037 2064 2029 2048 110
2241 2074 2057 2082 110
1964 2053 1895 2000 109
1936 2043 1940 2014 109
2194 2054 2147 2081 108
2040 2059 2110 2087 108
1887 2058 2122 2077 107
2170 2079 2073 2086 107
2135 2056 2074 2036 106
1892 2055 2163 2084 105
2091 2042 2045 2015 105
2205 2055 2036 2037 105
1922 2052 2047 2047 104
1997 2043 1990 2030 104
2221 2055 1987 2040 103
2004 2062 2027 2052 103
1942 2059 2023 2052 102
2219 2062 2013 2051 102
2085 2065 2034 2057 102
1896 2058 2033 2049 101
2141 2062 2036 2052 101
2159 2057 1982 2023 101
1882 2053 2002 2022 100
2051 2058 2057 2078 100
2202 2067 2111 2094 99
1930 2058 2045 2062 99
1978 2041 1870 1978 98
2214 2049 1956 2018 98
2012 2067 2176 2148 97
1920 2060 2185 2085 96
2189 2064 2200 2080 96
2109 2061 2077 2034 95
1890 2059 2064 2056 95
2103 2057 2044 2055 94
2190 2068 2006 2048 94
1911 2062 2012 2041 93
2023 2060 2033 2054 92
2229 2063 2014 2051 92
1983 2059 2005 2036 91
1936 2048 2006 2034 91
2181 2046 2005 2043 90
2058 2061 2049 2049 90
1911 2056 2065 2068 89
2200 2057 2017 2043 89
2151 2051 1931 2002 88
1884 2052 1979 2044 87
2068 2049 2109 2081 87
2187 2054 2057 2079 86
1915 2061 2051 2073 85
2006 2058 2046 2049 85
2214 2058 2116 2053 84
1988 2048 2175 2060 83
1953 2070 2128 2066 83
2212 2074 2085 2080 82
2085 2086 2045 2077 81
1918 2079 2010 2052 81
2170 2079 2023 2061 80
2161 2079 2025 2062 80
1876 2059 2012 2045 79
2079 2053 2010 2041 78
2227 2059 2025 2051 78
1964 2067 2026 2060 77
2031 2068 1984 2052 77
2235 2060 1980 2038 76
1994 2056 2047 2047 76
1911 2040 2024 2016 75
2164 2035 2026 2021 74
2078 2040 1999 2029 74
1878 2044 2047 2056 73
2109 2047 2200 2129 73
2161 2055 2177 2087 72
1892 2042 2078 2048 71
2028 2045 2016 2023 71
2197 2055 2008 2034 70
1951 2056 2045 2043 70
1953 2058 2041 2042 69
2188 2060 2021 2040 69
2019 2056 2005 2040 68
1924 2047 2000 2016 68
2179 2049 2010 2038 67
2128 2052 1981 2039 67
1905 2057 1991 2043 66
2105 2065 2050 2075 66
2173 2070 2081 2065 65
1936 2072 2021 2069 65
2052 2077 2014 2066 64
2237 2084 2060 2085 64
1993 2075 2054 2052 63
1956 2060 2001 2027 63
2225 2064 2005 2046 62
2059 2065 2159 2099 61
1896 2054 2228 2119 61
2145 2055 2146 2064 60
2117 2043 1985 2028 60
1878 2041 1983 2019 59
2072 2050 2039 2031 59
2196 2058 2044 2045 58
1921 2057 2008 2023 57
1993 2049 2008 2040 57
2226 2070 2010 2056 56
1992 2065 2017 2054 56
1963 2073 2020 2054 55
2196 2048 1954 2033 55
2075 2062 2002 2050 54
1903 2061 2040 2046 54
2151 2067 2094 2060 54
2168 2078 2072 2078 53
1917 2083 2046 2075 53
2072 2053 2051 2053 52
2215 2072 2097 2062 52
1940 2062 2100 2043 51
2021 2096 2061 2086 50
2249 2096 2059 2077 50
2040 2074 2088 2077 49
1906 2049 2129 2061 49
2177 2053 2119 2060 48
2079 2041 2044 2040 48
1886 2044 2009 2038 47
2078 2013 1971 2000 47
2151 2037 1996 2033 46
1915 2052 2021 2048 46
2041 2063 2043 2055 45
2216 2064 2036 2050 45
2064 2135 2080 2114 44
1992 2100 2054 2093 44
2273 2112 2092 2129 43
2058 2079 2037 2070 43
1959 2092 2035 2086 42
2153 2072 1977 2049 42
2116 2055 2005 2049 41
1910 2063 2101 2072 41
2062 2028 2134 2042 40
2151 2039 2115 2044 39
1930 2056 2055 2048 39
1971 2024 1948 2011 38
2204 2060 2013 2039 38
1983 2039 2049 2043 37
1950 2040 2060 2028 37
2182 2016 2022 2018 36
2098 2037 2015 2029 36
1879 2032 1998 2022 35
2117 2045 2027 2049 35
2098 2050 2016 2050 34
1858 2063 2030 2056 34
2039 2052 2031 2056 33
2207 2079 2031 2058 33
1906 2037 2001 2015 32
2042 2096 2036 2071 32
2200 2041 2060 2050 32
2056 2086 2125 2099 31
1944 2070 2073 2067 31
2192 2074 2049 2070 30
2094 2053 2033 2060 30
1868 2015 2024 2024 29
2156 2084 2040 2061 29
2176 2072 2013 2057 29
1914 2053 1999 2048 28
2078 2073 2086 2083 28
2203 2053 2086 2052 27
1962 2057 2093 2070 27
1996 2078 2065 2068 26
2232 2077 2058 2070 26
2068 2080 2060 2076 26
1928 2072 2059 2076 25
2183 2059 2034 2066 25
2119 2063 2026 2057 24
1871 2033 2020 2040 24
2096 2050 2029 2043 24
2197 2071 2060 2064 23
1938 2076 2064 2070 23
2036 2056 2043 2051 22
2209 2060 2035 2051 22
1987 2082 2048 2058 22
1970 2075 2060 2060 21
2206 2059 2046 2053 21
2052 2059 2036 2037 20
1892 2043 2026 2038 20
2148 2058 2037 2048 20
2128 2045 2040 2046 19
1909 2071 2058 2064 19
2045 2028 2020 2027 19
2205 2066 2070 2073 18
1952 2075 2040 2037 18
1986 2037 2045 2053 18
2193 2037 2002 2024 17
1998 2065 2086 2100 17
1938 2067 2010 2048 17
2195 2063 2059 2073 16
2079 2052 2034 2049 16
1904 2066 2063 2073 16
2143 2066 2059 2046 15
2167 2064 2067 2059 15
1938 2100 2114 2131 15
2055 2060 2058 2077 14
2238 2081 2081 2105 14
1962 2059 2009 2016 14
1977 2057 2052 2053 13
2208 2072 2074 2086 13
2019 2060 2038 2047 13
1909 2052 2051 2046 13
2167 2048 2039 2048 12
2078 2040 2025 2045 12
1888 2062 2037 2049 12
2123 2068 2052 2052 12
2172 2050 2038 2041 11
1912 2056 2038 2050 11
2068 2099 2062 2076 11
2194 2055 2046 2043 10
1992 2076 2041 2050 10
1935 2027 2033 2041 10
2223 2082 2054 2065 9
2053 2064 2057 2041 9
1909 2056 2061 2057 9
2160 2065 2007 2013 9
2112 2050 2033 2050 8
1903 2062 2024 2028 8
2129 2087 2060 2068 8
2232 2096 2039 2055 8
1932 2068 1976 1985 7
1992 2050 2032 2076 7
2201 2042 2039 2069 7
1997 2071 2032 2070 7
1923 2049 2041 2048 6
2178 2042 2026 2024 6
2072 2054 2053 2064 6
1908 2063 2066 2074 5
2168 2084 2073 2076 5
2191 2099 2083 2073 4
1916 2064 2064 2064 4
2080 2079 2062 2069 4
2222 2093 2066 2073 3
1936 2039 2039 2047 3
1948 2022 1989 1954 3
2189 2039 2076 2056 2
2015 2058 2041 2073 2
1928 2061 2016 2058 2
2180 2054 2027 2040 2
2065 2021 1978 1998 1
1890 2050 2054 2072 1
2096 2036 2031 2063 1
2154 2053 2051 2058 1
1889 2041 2002 1998 1
2020 2032 2000 2037 0
2234 2090 2034 2070 0
1981 2068 2080 2077 0
2016 2104 2091 2089 0
2192 2031 2049 2056 0
2091 2106 2080 2064 0
1889 2045 2042 2050 0
2222 2097 2088 2093 0
2148 2088 2076 2075 0
1911 2069 2061 1987 0
2085 2031 2018 1982 0
2167 2031 1939 2002 0
1891 2038 2020 2033 0
2026 2056 2003 2073 0
2232 2055 2023 2002 0
1950 2032 2002 2053 0
1934 2053 2035 2102 0
2190 2039 2014 2021 0
2058 2060 2058 2063 0
1893 2052 2053 2054 0
2158 2048 2057 2046 0
2152 2055 2058 2052 0
1897 2073 2065 2059 0
2073 2058 2047 2050 0
2275 2134 2088 2097 0
1937 2082 2061 2066 0
2006 2069 2048 2061 0
2226 2054 2043 2050 0
2005 2053 2047 2048 0
1907 2046 2042 2044 0
2223 2088 2054 2056 0
2080 2053 2045 2039 0
1890 2058 2041 2032 0
2128 2048 2043 2054 0
2163 2056 2034 2046 0
1898 2060 2039 2061 0
2048 2048 2018 2025 0
2194 2041 2041 2037 0
1951 2070 2041 2052 0
1983 2060 2044 2060 0
2223 2064 2055 2065 0
2060 2090 2065 2069 0
1917 2061 2051 2053 0
2169 2054 2053 2054 0
2145 2096 2069 2076 0
1887 2054 2044 2053 0
2101 2059 2044 2046 0
2166 2049 2034 2043 0
1895 2035 2016 2023 0
2030 2052 2037 2038 0
2216 2063 2038 2051 0
1976 2057 2053 2070 0
1949 2036 2012 2034 0
2191 2035 2028 2042 0
2053 2067 2048 2057 0
1909 2057 2040 2051 0
2168 2057 2043 2058 0
2123 2052 2035 2046 0
1882 2056 2022 2042 0
2091 2055 2017 2047 0
2187 2061 2039 2051 0
1927 2063 2063 2064 0
2007 2054 2069 2055 0
2218 2057 2046 2057 0
2015 2071 2035 2056 0
1935 2056 2008 2043 0
2200 2058 2080 2063 0
2085 2072 2084 2053 1
1889 2055 2103 2049 1
2147 2056 2070 2047 1
2154 2062 2037 2057 1
1893 2049 2000 2048 1
2080 2062 2004 2047 1
2174 2029 2000 2033 1
1952 2071 2064 2080 2
2004 2072 2084 2070 2
2225 2055 2032 2057 2
2024 2070 2011 2048 2
1936 2069 1999 2058 3
2190 2063 2061 2068 3
2104 2079 2082 2080 3
1903 2068 1972 2025 3
2135 2056 1884 1988 4
2165 2058 1873 2023 4
1905 2062 2121 2063 4
2003 2027 2392 2155 4
2211 2071 2370 2109 5
1950 2061 2200 2083 5
1974 2065 2032 2036 5
2218 2057 1986 2047 6
2029 2055 1988 2045 6
1925 2072 1947 2044 7
2185 2064 1947 2056 7
2128 2072 2024 2062 7
1896 2059 2012 2040 8
2102 2052 1983 2032 8
2186 2056 1964 2033 9
1914 2055 2008 2061 9
2005 2046 2112 2063 10
2247 2086 2062 2065 10
2017 2089 2021 2046 11
1972 2086 1957 2064 11
2218 2078 2091 2096 12
2068 2078 2134 2084 12
1938 2090 2097 2075 13
2147 2056 1981 2052 13
2124 2044 1996 2021 14
1905 2063 2184 2077 14
2045 2037 2168 2048 15
2169 2042 1991 1995 15
1898 2010 1924 1986 16
1957 2015 1991 2005 16
2174 2033 2132 2073 16
2006 2054 2098 2077 17
1911 2026 1973 2023 17
2195 2060 1955 2046 18
2088 2065 1946 2049 18
1900 2056 1937 2045 19
2160 2073 1908 2039 19
2147 2054 1995 2026 20
1885 2055 2079 2043 20
2064 2062 2204 2067 21
2178 2037 2160 2040 21
1949 2042 2056 2022 21
1946 2025 1996 2028 22
2215 2073 2116 2090 22
2007 2046 2144 2068 23
1931 2064 1988 2031 23
2172 2044 1792 1983 24
2094 2059 1931 2048 24
1912 2073 2142 2083 25
2131 2077 2223 2105 25
2210 2101 2032 2062 26
1965 2108 1986 2094 26
2081 2098 2129 2109 27
2228 2090 2253 2125 27
1973 2059 2168 2074 28
1932 2036 1887 2002 28
2188 2041 1901 2016 29
2031 2036 2039 2016 29
1920 2061 2187 2085 30
2166 2060 2135 2064 30
2141 2066 1965 2042 31
1914 2064 1942 2044 32
2077 2058 1967 2053 32
2197 2073 2012 2063 33
1914 2032 1958 2017 33
2024 2061 1859 1984 34
2226 2073 1922 2029 34
2047 2128 2141 2117 35
1999 2124 2464 2230 36
2282 2155 2355 2186 36
2160 2148 2112 2140 37
1996 2142 1952 2091 37
2155 2061 2029 2071 38
2131 2048 2079 2054 38
1892 2056 2040 2038 39
2063 2062 1981 2023 39
2168 2033 2130 2033 40
1913 2023 2233 2073 41
1916 1982 2010 1996 41
2157 2001 1841 1967 42
2030 2060 1856 2022 42
1900 2028 1968 2019 43
2122 1999 2108 2039 43
2048 1996 2029 2015 44
1871 2010 1894 1978 44
2090 2030 1881 2009 45
2133 2030 2027 2015 46
1909 2074 2179 2103 46
2023 2076 2055 2044 47
2218 2075 1954 2032 47
1965 2047 1993 2048 48
1937 2045 2098 2065 48
2231 2103 2126 2098 49
2065 2081 2105 2066 49
1911 2051 2132 2070 50
2166 2048 2101 2060 50
2099 2039 2040 2056 51
1901 2058 1980 2050 51
2110 2072 2095 2074 51
2197 2068 2101 2074 52
1915 2050 2008 2028 52
2016 2039 1964 2013 53
2215 2048 2049 2047 53
1974 2046 2019 2040 54
1937 2045 1801 2014 54
2213 2063 1951 2058 54
2062 2061 2116 2091 55
1895 2057 2238 2097 55
2160 2058 1921 2004 56
2140 2052 1926 2056 56
1907 2080 2199 2070 57
2046 2047 2480 2114 57
2240 2109 2295 2110 58
1948 2075 1931 2038 58
2015 2072 1871 2046 59
2247 2065 1846 2026 59
2022 2074 1977 2051 60
1939 2077 2074 2098 60
2209 2076 2061 2072 61
2101 2071 2153 2093 61
1871 2062 2195 2112 62
2125 2059 2186 2075 62
2164 2065 1942 2040 63
1903 2051 1774 1993 63
2053 2053 1974 2046 64
2204 2054 2150 2080 64
1936 2038 2031 2024 65
1972 2055 2020 2014 65
2221 2073 1852 1994 66
2033 2050 1888 2051 66
1902 2041 1945 2085 67
2161 2048 2281 2129 67
2127 2079 2545 2171 68
1910 2068 2079 2038 68
2136 2059 1899 2022 69
2189 2071 2104 2051 70
1906 2066 2380 2138 70
2018 2060 2217 2103 71
2215 2061 1918 2047 71
1962 2056 1817 1988 72
1961 2054 1899 2012 73
2240 2074 1965 2064 73
2060 2084 2006 2080 74
1933 2068 2086 2074 75
2174 2065 2031 2023 75
2139 2056 1883 2047 76
1890 2049 1936 2010 77
2081 2043 2062 2028 77
2178 2054 2164 2085 78
1919 2057 2146 2040 78
2007 2058 1867 1985 79
2234 2056 1913 2008 79
1997 2058 2145 2036 80
1926 2057 2293 2132 80
2204 2074 2159 2089 81
2080 2072 1983 2073 81
1887 2055 1911 2041 82
2140 2064 2058 2050 82
2145 2062 2147 2090 83
1889 2062 2062 2064 83
2054 2056 1748 1994 84
2196 2047 1932 2014 84
1929 2059 2212 2076 85
1967 2054 2295 2079 85
2211 2052 1936 2000 86
2012 2052 1673 1946 86
1895 2045 2074 2052 87
2185 2068 2334 2111 87
2092 2061 2168 2116 88
1893 2056 1718 2002 88
2109 2036 1887 2020 89
2161 2050 2223 2034 89
1888 2049 2388 2100 89
2036 2046 2014 2026 90
2230 2058 1769 1996 90
1953 2048 2073 2083 91
1955 2054 2216 2091 91
2212 2058 2203 2094 92
2040 2056 2020 2065 92
1908 2046 1897 2004 92
2184 2059 1951 2037 93
2127 2061 1951 2030 93
1869 2051 1821 2056 94
2107 2070 1857 2021 94
2183 2077 2159 2092 94
1912 2071 2237 2061 95
2050 2059 2247 2062 95
2249 2089 2125 2094 95
2018 2089 1984 2084 96
1963 2077 2159 2086 96
2222 2066 1875 1987 97
2073 2070 2095 2067 97
1884 2054 2333 2186 97
2175 2072 2170 2090 98
2153 2059 1743 1943 98
1809 2039 1928 2010 99
2092 2067 2236 2131 99
2242 2079 2309 2124 99
1955 2062 1843 1994 100
2008 2023 1701 1956 100
2220 2075 2203 2112 101
1997 2070 2283 2130 101
1924 2051 1762 2013 101
2217 2027 1759 1949 102
2050 2028 2144 2024 102
1829 2043 2381 2112 102
2121 2049 2120 2076 103
2151 2026 1568 1949 103
1874 2045 1892 2006 104
2047 2059 2406 2137 104
2210 2075 2324 2137 104
1948 2059 1666 1971 105
1967 2034 1755 1992 105
2215 2062 2316 2121 105
2020 2059 2430 2113 106
1916 2061 2210 2078 106
2175 2032 1471 1882 107
2124 2076 1956 2054 107
1874 2060 2314 2128 107
2128 2088 2345 2164 108
2188 2061 1822 1983 108
1910 2048 1740 1991 108
2048 2082 2101 2081 109
2226 2084 2129 2092 109
1974 2065 1900 2027 109
1984 2059 2145 2055 110
2216 2084 2174 2095 110
2076 2096 2322 2107 110
1924 2073 2101 2084 111
2180 2065 1914 2036 111
2149 2069 2116 2093 111
1913 2081 2103 2065 112
2103 2062 1915 2007 112
2203 2058 1879 2018 112
1940 2076 2016 2105 113
1977 2065 1994 2028 113
2268 2095 2032 2096 113
2041 2098 2162 2101 114
2010 2122 2104 2097 114
2278 2102 2124 2117 114
2113 2103 2268 2132 115
1909 2074 2176 2078 115
2139 2051 2019 2031 115
2157 2046 1757 2016 115
1859 2014 1577 1943 116
2037 2045 2316 2124 116
2180 2062 2438 2125 116
1897 2035 2207 1989 117
1942 2007 1744 1902 117
2131 2015 1731 1989 117
2003 2080 2368 2189 117
2008 2099 2355 2192 118
2257 2105 2157 2123 118
2183 2066 1553 1917 118
1904 2071 1893 2026 118
2140 2101 2342 2183 119
2144 2039 2247 2074 119
1795 1932 1871 1901 119
1855 1847 1383 1727 120
2039 1902 1881 1899 120
1822 1961 2258 2036 120
1872 1954 1907 1980 120
2068 1891 1278 1733 121
1974 2004 2162 2024 121
1863 2040 2543 2156 121
2171 2064 2370 2106 121
2096 2031 1535 1925 122
1901 2052 1854 2008 122
2110 2106 2454 2171 122
2235 2131 2458 2182 122
1947 2049 1545 1861 123
2020 2042 1661 2017 123
2238 2120 2343 2186 123
2047 2120 2380 2213 123
2002 2100 2180 2098 124
2243 2064 1840 1971 124
2064 2051 1710 1942 124
1931 2091 2204 2140 124
2184 2104 2166 2145 125
2176 2088 1897 2102 125
1861 2002 1665 1972 125
2128 2128 2391 2153 125
2239 2113 2448 2194 125
1977 2134 2464 2181 126
2011 2029 1253 1814 126
2209 2020 1802 1943 126
2006 2111 2562 2178 126
1961 2096 2491 2183 126
2241 2087 2154 2112 126
2089 2043 1712 1974 127
1866 2052 1985 2006 127
2126 2061 2077 2057 127
2173 2050 1879 1998 127
1885 2027 1577 1918 127
2042 2052 2178 2072 127
2208 2073 2211 2112 127
1941 2078 2342 2106 127
2000 2060 2017 2061 127
2230 2060 1819 2019 128
2026 2069 2122 2126 128
1917 2057 2066 2075 128
2177 2048 1982 2011 128
2110 2065 2182 2058 128
1895 2071 2180 2111 128
2111 2066 2117 2075 128
2186 2059 1925 2012 128
1917 2048 1950 2001 128
2021 2049 2035 2065 128
2226 2064 2047 2068 128
1981 2063 2026 2035 128
1936 2058 1977 2007 128
2232 2065 2093 2082 128
2046 2056 1992 2046 128
1914 2096 2095 2100 128
2172 2058 1963 2024 128
2136 2064 1958 2061 128
1896 2060 1904 2032 128
2087 2071 2197 2086 128
2208 2087 2265 2083 128
1925 2068 2219 2088 128
2005 2064 2028 2053 128
2221 2066 1940 2050 127
2013 2072 2068 2059 127
1936 2068 2069 2049 127
2215 2077 2042 2073 127
2085 2063 2026 2048 127
1896 2060 2009 2037 127
2142 2060 2056 2061 127
2160 2066 2040 2052 127
1885 2044 1966 2026 126
2044 2042 2014 2037 126
2210 2062 2050 2061 126
1939 2055 2057 2061 126
1986 2046 2019 2036 126
2215 2043 1723 1930 125
2002 2042 2067 2115 125
1916 2068 2262 2125 125
2191 2069 2224 2117 125
2107 2077 2151 2084 124
1895 2060 1941 1991 124
2124 2062 2054 2060 124
2182 2071 2027 2053 123
1876 2061 1997 2049 123
2039 2066 2102 2070 123
2249 2064 2136 2076 122
1969 2064 2058 2050 122
1985 2055 1972 2039 122
2225 2064 2037 2058 122
2024 2065 2049 2053 121
1894 2057 2021 2045 121
2186 2058 2023 2047 120
2115 2057 2027 2038 120
1873 2046 1981 2019 120
2104 2057 2034 2067 119
2177 2055 2024 2063 119
1925 2058 1934 2014 118
1999 2061 2047 2062 118
2225 2080 2077 2059 117
1959 2062 2110 2111 117
1920 2048 1929 2016 116
2181 2050 2079 2041 116
2048 2055 2214 2088 115
1881 2051 2199 2069 114
2151 2054 2026 2044 114
2148 2060 1980 2030 113
1848 2055 2055 2047 113
2076 2058 2049 2063 112
2210 2056 1982 2031 112
1959 2062 2034 2051 111
2028 2076 2054 2064 111
2253 2074 2028 2060 110
2008 2076 2029 2060 110
1933 2061 2009 2042 109
2210 2074 2040 2064 109
2107 2084 2088 2096 108
1897 2053 1931 2001 107
2127 2050 1979 2030 107
2154 2058 2110 2091 106
1893 2060 2197 2109 105
2026 2050 2162 2078 105
2226 2054 2062 2048 104
1949 2056 2048 2068 103
1988 2057 2066 2063 103
2223 2048 2018 2028 102
2015 2044 2005 2011 101
1891 2046 2025 2033 101
2200 2056 2026 2040 100
2101 2055 2021 2034 100
1874 2043 2012 2035 99
2110 2044 2013 2034 99
2163 2046 2013 2031 98
1911 2045 1993 2018 97
2017 2048 2036 2058 97
2225 2069 2046 2064 96
1984 2073 2039 2054 96
1984 2081 2016 2071 95
2242 2080 2006 2066 94
2062 2082 1990 2052 94
1880 2065 2127 2079 93
2184 2065 2195 2091 92
2133 2059 2141 2077 91
1893 2056 2104 2071 91
2086 2046 2031 2052 90
2204 2064 2090 2052 89
1922 2056 2065 2047 89
1999 2054 2012 2035 88
2214 2064 1994 2040 87
1978 2057 2000 2029 87
1946 2053 2009 2037 86
2212 2076 2023 2056 86
2075 2077 2033 2057 85
1883 2044 2019 2039 85
2132 2039 2010 2031 84
2136 2045 2013 2046 83
1903 2058 1999 2036 83
2065 2050 1995 2021 82
2196 2052 1999 2031 82
1944 2072 2059 2096 81
1992 2058 2046 2086 80
2229 2059 2013 2047 80
1993 2044 2135 2094 79
1909 2050 2170 2053 78
2184 2056 2229 2107 77
2104 2058 2091 2049 77
1893 2056 2038 2044 76
2124 2059 2002 2042 75
2166 2064 2009 2056 75
1888 2054 1995 2035 74
2031 2053 1989 2038 74
2230 2059 2011 2045 73
1971 2056 2010 2037 73
1968 2052 2012 2039 72
2209 2055 2016 2063 72
2035 2048 2034 2060 71
1905 2057 2011 2050 71
2187 2069 2024 2062 70
2123 2075 2030 2070 69
1890 2060 1996 2036 69
2136 2064 2057 2051 68
2166 2042 2061 2045 68
1904 2048 2075 2057 67
2018 2054 2059 2061 66
2216 2061 2060 2059 66
1978 2061 2106 2075 65
1923 2057 2120 2068 65
2198 2066 2125 2091 64
2072 2067 2075 2062 63
1912 2063 2026 2048 63
2188 2069 2021 2054 62
2159 2064 2001 2048 61
1911 2048 2001 2038 61
2081 2052 2016 2041 60
2206 2067 2020 2055 60
1916 2054 2009 2044 59
1984 2060 1994 2045 59
2226 2064 2000 2050 58
1982 2041 2018 2047 57
1924 2060 1982 2055 57
2193 2047 2013 2038 56
2109 2082 2055 2076 56
1911 2085 2068 2049 55
2174 2075 2166 2105 54
2162 2060 2186 2116 54
1899 2061 2170 2079 53
2061 2052 2133 2079 52
2225 2068 2051 2066 52
1956 2066 2023 2060 51
1990 2062 2019 2055 51
2207 2057 2005 2037 50
2013 2061 2007 2040 50
1895 2043 1990 2029 49
2171 2046 1992 2024 49
2081 2036 1999 2020 48
1881 2028 1994 2020 48
2099 2042 2010 2030 47
2167 2046 2014 2040 47
1892 2033 2017 2035 46
2014 2042 2032 2045 46
2200 2042 2028 2045 46
1948 2040 2006 2034 45
1980 2057 2043 2059 45
2178 2045 1995 2017 44
2068 2087 2022 2068 44
1916 2078 2027 2070 43
2154 2060 2022 2060 43
2170 2081 2040 2067 42
1889 2058 2069 2059 42
2106 2075 2196 2084 42
2214 2063 2214 2071 41
1920 2049 2141 2037 41
2000 2057 2055 2052 40
2223 2059 2000 2052 40
2003 2062 2020 2058 39
1947 2066 2011 2058 39
2207 2065 2036 2065 38
2090 2073 2059 2078 38
1902 2055 2048 2048 37
2138 2055 2022 2039 37
2138 2051 2010 2042 36
1910 2073 2041 2065 36
2070 2071 2042 2062 36
2199 2048 2030 2051 35
1931 2047 2021 2040 35
1969 2038 2023 2040 34
2219 2066 2045 2062 34
2025 2066 2046 2061 34
1920 2054 2038 2051 33
2175 2051 2036 2042 33
2087 2048 2036 2047 32
1877 2041 2026 2038 32
2123 2068 2046 2060 32
2172 2058 2045 2058 31
1896 2036 2026 2040 31
2027 2048 2023 2042 30
2198 2062 2035 2051 30
1997 2088 2073 2088 30
1987 2092 2076 2083 29
2228 2074 2062 2071 29
2037 2076 2044 2051 29
1881 2028 2022 2029 28
2153 2044 2027 2024 28
2128 2072 2060 2069 27
1900 2071 2051 2060 27
2088 2048 2032 2043 27
2135 2026 2009 2024 26
1916 2055 2035 2042 26
2018 2064 2046 2062 25
2206 2049 2042 2050 25
1978 2047 2040 2042 24
1940 2053 2042 2054 24
2209 2072 2055 2066 24
2073 2064 2056 2068 23
1919 2066 2054 2066 23
2145 2052 2041 2052 22
2148 2069 2056 2066 22
1914 2063 2063 2075 22
2084 2053 2045 2061 21
2202 2064 2054 2066 21
1937 2059 2042 2057 20
2001 2056 2048 2055 20
2200 2039 2002 2009 20
2016 2069 2080 2108 19
1932 2061 2005 2002 19
2206 2065 2099 2108 19
2081 2048 1973 1999 18
1873 2043 2053 2082 18
2109 2038 1994 2024 18
2156 2054 2031 2044 17
1897 2062 2031 2052 17
2039 2039 2025 2033 17
2200 2057 2058 2065 16
1946 2058 2033 2035 16
1988 2068 2055 2065 16
2227 2072 2058 2068 16
2034 2084 2065 2075 15
1910 2055 2048 2049 15
2193 2064 2059 2060 15
2108 2058 2051 2045 15
1887 2058 2060 2045 15
2132 2077 2063 2067 14
2180 2080 2041 2055 14
1907 2071 2027 2049 14
2020 2043 2021 2017 14
2197 2044 2046 2055 14
1963 2060 2068 2060 14
1965 2069 2038 2068 14
2208 2054 2029 2045 13
2062 2080 2055 2056 13
1895 2047 2046 2037 13
2183 2078 2072 2075 13
2133 2056 2026 2030 13
1901 2072 2049 2042 13
2106 2069 2050 2057 13
2202 2067 2040 2052 12
1930 2069 2053 2062 12
2023 2071 2047 2039 12
2235 2065 2034 2056 12
1982 2058 2065 2075 12
1931 2048 2041 2055 12
2212 2064 2063 2051 11
2052 2059 2058 2053 11
1918 2077 2061 2079 11
2154 2074 2061 2069 11
2154 2060 2025 2003 10
1884 2035 2037 2030 10
2045 2045 2014 2044 10
2200 2068 2057 2104 10
1944 2066 2032 2062 9
1978 2056 2013 2033 9
2220 2080 2070 2074 9
2026 2074 2046 2070 9
1931 2069 2061 2073 8
2208 2074 2058 2081 8
2065 2036 2026 2043 8
1862 2025 2007 2012 7
2103 2033 2026 2028 7
2164 2053 2050 2054 7
1901 2056 2048 2050 6
2053 2057 2042 2048 6
2210 2066 2051 2056 6
1927 2034 2035 2046 6
1966 2054 2050 2046 5
2209 2052 2028 2013 5
2044 2071 2119 2121 5
1885 2035 1998 1948 4
2172 2056 2077 2101 4
2110 2055 2015 2057 4
1890 2052 2022 2066 4
2109 2051 2036 2068 4
2176 2052 2028 2026 4
1913 2058 2050 2065 3
2019 2057 2043 2062 3
2216 2054 2053 2050 3
1988 2071 2066 2062 3
1976 2069 2063 2072 3
2223 2073 2061 2070 2
2064 2069 2053 2064 2
1905 2077 2071 2077 2
2140 2047 2023 2024 2
2198 2108 2073 2052 2
1898 2066 2071 2060 2
2087 2063 2044 1998 1
2179 2032 2091 2057 1
1914 2044 1953 2054 1
1978 2045 2009 2105 1
2215 2056 1997 2071 1
1987 2043 2047 2059 1
1913 2044 2045 2043 1
2185 2047 2035 2063 0
2076 2047 2036 2036 0
1885 2048 2059 2044 0
2124 2058 2052 2057 0
2181 2079 2058 2065 0
1899 2061 2034 2024 0
2055 2049 2057 2074 0
2200 2043 1999 1998 0
1948 2056 2052 2036 0
1980 2062 2067 2055 0
2218 2059 2032 2052 0
2022 2065 2052 2105 0
1910 2064 2042 2080 0
2187 2066 2045 2049 0
2128 2070 2068 2076 0
1882 2053 2042 2049 0
2128 2065 2052 2054 0
2188 2068 2055 2058 0
1909 2061 2050 2051 0
2031 2048 2047 2049 0
2216 2058 2044 2042 0
1947 2045 2014 2025 0
1986 2080 2058 2067 0
2199 2055 2032 2040 0
2080 2083 2054 2053 0
1882 2030 2026 2019 0
2172 2068 2033 2047 0
2130 2053 2063 2073 0
1886 2057 2026 2037 0
2093 2053 2047 2052 0
2183 2067 2071 2091 0
1943 2075 2039 2054 0
2011 2054 2047 2062 0
2234 2072 2057 2061 0
1995 2064 2054 2058 0
1933 2049 2046 2057 0
2233 2069 2057 2068 0
2078 2069 2049 2055 0
1897 2060 2042 2055 0
2162 2071 2017 2056 0
2158 2064 2007 2049 0
1890 2061 2001 2045 0
2082 2050 2034 2055 0
2202 2060 2087 2069 0
1932 2052 2113 2058 0
1995 2064 2101 2059 0
2257 2078 2087 2068 0
2019 2064 2049 2060 0
1920 2061 2036 2047 1
2195 2053 2030 2045 1
2084 2054 2024 2042 1
1890 2050 2026 2041 1
2135 2059 2034 2048 1
2159 2058 2031 2042 2
1927 2078 2054 2061 2
2044 2057 1981 2036 2
2213 2068 1960 2039 2
1975 2064 1942 2044 3
1972 2061 2025 2075 3
2221 2065 2134 2094 3
2030 2054 2148 2057 4
1906 2044 2079 2029 4
2172 2054 2016 2032 4
2118 2076 2025 2064 4
1893 2050 2124 2065 5
2100 2043 2145 2046 5
2178 2049 2058 2032 6
1914 2056 1982 2024 6
2004 2037 1941 2027 6
2214 2052 2034 2054 7
1976 2068 2127 2109 7
1946 2064 2062 2079 7
2212 2061 2008 2057 8
2060 2062 1960 2040 8
1896 2056 2039 2057 8
2153 2058 2074 2054 9
2120 2049 2065 2047 9
1915 2085 1976 2036 9
2095 2059 1918 2018 10
2217 2076 1951 2046 10
1950 2073 2133 2095 10
2010 2068 2211 2105 11
2239 2079 2077 2045 11
2023 2076 1967 2032 11
1945 2078 1960 2023 12
2197 2074 2198 2144 12
2084 2073 2179 2101 12
1890 2055 2115 2085 13
2143 2056 2031 2044 13
2156 2052 2047 2050 14
1906 2058 2036 2042 14
2057 2053 1959 2024 14
2208 2061 1886 2013 15
1946 2050 1950 2032 15
1993 2064 2142 2099 16
2214 2055 2119 2071 16
2021 2056 2007 2014 17
1900 2032 1907 2007 17
2149 2035 2011 2015 18
2084 2050 2231 2117 18
1892 2051 2156 2051 19
2098 2047 2078 2056 19
2168 2052 1964 2022 20
1909 2048 1940 2009 20
2026 2045 1935 2021 21
2223 2061 1946 2037 21
1981 2053 2033 2068 22
1950 2058 2065 2079 22
2203 2061 2105 2073 23
2057 2082 2217 2125 23
1918 2062 2144 2079 24
2181 2070 2040 2057 25
2124 2053 1927 2021 25
1882 2049 1990 2032 26
2074 2047 2064 2033 26
2167 2042 2019 2012 27
1928 2052 2022 2018 27
2007 2052 2102 2066 28
2218 2075 2076 2100 28
2008 2072 2023 2078 29
1950 2057 1946 2032 29
2220 2078 2080 2101 30
2102 2098 2096 2090 31
1927 2088 2075 2092 31
2182 2092 2054 2068 32
2154 2085 2136 2076 32
1937 2097 2175 2075 33
2123 2112 2124 2089 33
2229 2097 1999 2049 34
1954 2066 1921 2046 35
1974 2030 2046 2055 35
2163 2014 2093 2074 36
1984 2017 2028 2012 36
1883 2006 1906 1985 37
2158 2032 1928 1989 37
2054 2031 2110 2048 38
1877 2039 2085 2049 39
2115 2036 1981 2018 39
2148 2049 1932 2018 40
1904 2066 2080 2064 40
2081 2092 2144 2097 41
2220 2081 2109 2091 41
1968 2076 2096 2094 42
1983 2061 2087 2065 43
2219 2063 2041 2051 43
2042 2071 1961 2040 44
1933 2060 1938 2010 44
2181 2063 2145 2067 45
2129 2078 1983 2049 46
1887 2064 1934 2049 46
2116 2073 1956 2053 47
2204 2059 2123 2078 47
1903 2048 2089 2055 48
2026 2049 2044 2054 49
2226 2069 2114 2064 49
1973 2073 2234 2039 50
1963 2065 2141 2052 50
2208 2057 2032 2068 51
2043 2055 1982 2055 52
1889 2048 2091 2062 52
2151 2054 2010 2015 53
2136 2056 1921 2023 54
1900 2053 1798 1993 54
2090 2056 1809 2007 55
2178 2046 2060 2054 55
1967 2063 2271 2116 56
2016 2050 2162 2073 57
2223 2058 1989 2031 57
1991 2063 2015 2036 58
1900 2047 2241 2105 58
2159 2054 2024 2067 59
2063 2055 1842 2015 60
1873 2042 1901 2006 60
2109 2044 2308 2131 61
2136 2063 2180 2044 61
1904 2043 1971 2019 62
2049 2063 1970 2028 63
2190 2067 2078 2102 63
1933 2057 2169 2096 64
1977 2042 2000 2017 65
2196 2048 1956 2031 65
2037 2057 1941 2009 66
1943 2059 1914 2031 66
2202 2062 1950 2030 67
2115 2073 2163 2137 68
1905 2065 1934 2046 68
2118 2064 2136 2086 69
2190 2074 2255 2104 70
1921 2064 2255 2059 70
2037 2060 2117 2054 71
2216 2064 1796 1968 71
1973 2062 1898 2025 72
1970 2078 2066 2079 73
2191 2065 1944 2023 73
2069 2066 2020 2028 74
1876 2049 2191 2055 75
2154 2056 2285 2164 75
2124 2071 2168 2106 76
1892 2059 1833 1996 76
2088 2052 1930 2013 77
2206 2062 2204 2126 78
1914 2053 2108 2086 78
2013 2052 1925 2008 79
2226 2066 1912 1999 80
1992 2063 2105 2066 80
1956 2062 1930 2021 81
2196 2045 1815 1992 81
2039 2052 1878 1993 82
1912 2065 2322 2131 82
2149 2083 2464 2187 83
2164 2078 1892 2035 84
1917 2059 1899 2026 84
2079 2058 2020 2014 85
2203 2074 2254 2090 85
1939 2071 2107 2082 86
2018 2065 1718 1978 86
2204 2067 1968 2097 87
2022 2090 2210 2081 87
1943 2071 2091 2063 88
2199 2073 2104 2024 88
2082 2060 2234 2143 89
1874 2060 2116 2085 89
2106 2061 1967 2038 90
2174 2055 1761 1986 90
1903 2044 1901 2005 91
2059 2049 2138 2092 91
2200 2046 1983 2023 92
1954 2064 2122 2041 92
1968 2060 2206 2080 93
2221 2079 1996 2084 93
2025 2056 2055 2093 94
1923 2055 2088 2035 94
2179 2061 2105 2045 95
2112 2047 1873 1977 95
1879 2044 1843 2011 96
2093 2051 2280 2155 96
2188 2062 2184 2073 97
1909 2046 2003 2038 97
2026 2034 1820 1959 98
2192 2046 1900 2047 98
1967 2060 2232 2127 99
1957 2056 1890 1992 99
2206 2038 1967 1993 99
2067 2076 2247 2111 100
1898 2055 2185 2095 100
2172 2060 1966 2059 101
2122 2033 1718 1977 101
1877 2051 2004 2057 102
2100 2068 2213 2089 102
2201 2055 2142 2048 102
1952 2047 1895 2034 103
1997 2052 1870 1996 103
2209 2084 2295 2133 104
1953 2057 2209 2079 104
1950 2039 1935 2007 105
2215 2068 2133 2084 105
2092 2068 1971 2062 106
1890 2045 1777 1948 106
2126 2048 1978 2015 106
2164 2070 2253 2092 107
1898 2063 2134 2111 107
2057 2048 1767 1982 108
2232 2070 1930 1994 108
1936 2075 2375 2124 108
1992 2092 2478 2155 109
2231 2052 1896 1998 109
2025 2047 1685 1955 110
1896 2048 1978 2036 110
2200 2082 2253 2187 110
2115 2071 1965 2056 111
1916 2050 1919 1998 111
2135 2071 1839 2005 112
2153 2050 2160 2070 112
1930 2078 2311 2092 112
2032 2037 1836 1942 113
2177 2044 1869 1944 113
1951 2074 2152 2102 113
1997 2079 2292 2156 114
2244 2094 2030 2097 114
2070 2073 1564 1978 115
1903 2051 1968 2060 115
2143 2075 2532 2174 115
2129 2069 2342 2091 116
1874 2032 1796 1941 116
2093 2039 1824 1989 116
2170 2060 2094 2061 117
1925 2070 2237 2121 117
2019 2040 1707 1882 117
2177 2039 1790 2006 118
2003 2075 2338 2212 118
1946 2080 2293 2161 118
2240 2057 1999 2063 119
2077 2047 1780 1952 119
1877 2048 1922 2019 119
2131 2072 2294 2096 119
2188 2071 2080 2024 120
1884 2047 1920 1966 120
2063 2043 2084 2039 120
2194 2065 2139 2118 121
1939 2044 1888 2000 121
1986 2059 2042 2085 121
2230 2065 2123 2029 121
1958 2048 2174 2052 122
1925 2048 2142 2078 122
2206 2069 2013 2036 122
2129 2085 2032 2112 123
1924 2050 1960 2034 123
2142 2044 1861 2006 123
2134 2016 1857 1960 123
1907 2063 2033 2050 123
2066 2042 2079 2111 124
2233 2072 2035 2053 124
1929 2042 1879 1979 124
1955 2063 2335 2131 124
2214 2072 2203 2105 125
2024 2042 1879 1996 125
1920 2066 2190 2144 125
2207 2087 2069 2066 125
2104 2089 2212 2149 125
1882 2048 1913 1965 126
2136 2042 1992 2002 126
2188 2067 2137 2105 126
1884 2049 1931 2039 126
2061 2068 1920 2019 126
2205 2055 1777 1923 126
1965 2050 2074 2061 127
1948 2079 2270 2090 127
2197 2064 2158 2107 127
2055 2077 2129 2065 127
1890 2038 1870 1968 127
2165 2031 1779 2006 127
2075 2028 1986 2091 127
1935 2104 2388 2174 127
2073 2034 2057 2032 128
2201 2092 2156 2070 128
1945 2070 1915 2086 128
2001 2059 2008 2066 128
2223 2072 2275 2136 128
2004 2061 2100 2055 128
1929 2048 1912 2002 128
2184 2043 1902 2031 128
2065 2038 1944 1991 128
1898 2054 2155 2101 128
2143 2076 2072 2113 128
2166 2072 1977 2077 128
1901 2069 2058 2035 128
2071 2063 2246 2091 128
2196 2077 2099 2068 128
1951 2065 2109 2096 128
1985 2046 2000 2052 128
2196 2052 2020 2036 128
2031 2074 2128 2104 128
1944 2073 2018 2067 128
2199 2057 1899 2033 128
2081 2059 2147 2076 128
1889 2057 2075 2031 128
2128 2075 2102 2037 128
2174 2063 2017 2062 128
1891 2061 2013 2067 128
2022 2054 2037 2055 128
2200 2057 1947 2026 128
1990 2076 2095 2081 128
1985 2074 2125 2057 128
2250 2084 2145 2087 127
2064 2072 1918 1990 127
1928 2075 2033 2082 127
2159 2066 2028 2036 127
2132 2080 2192 2108 127
1893 2060 2036 2060 127
2094 2045 1938 2006 127
2171 2048 2041 2044 126
1915 2052 2030 2037 126
2026 2063 2135 2092 126
2211 2067 2039 2046 126
1976 2058 1989 2055 126
1968 2062 2015 2054 125
2203 2055 2060 2041 125
2063 2063 2054 2048 125
1891 2063 2108 2057 125
2127 2049 2026 2025 124
2136 2066 2085 2072 124
1920 2062 2056 2043 124
2088 2068 1968 2043 124
2202 2061 1959 2034 124
1948 2078 2114 2081 123
1986 2069 2075 2072 123
2226 2065 2024 2048 123
2034 2068 2015 2068 122
1936 2052 2075 2086 122
2192 2061 1965 2052 122
2094 2056 2098 2055 121
1884 2053 2105 2058 121
2124 2068 2231 2094 121
2145 2064 2118 2052 120
1901 2047 1973 2015 120
2040 2041 1976 2018 120
2208 2064 2061 2060 120
1952 2048 2014 2034 119
1943 2051 2010 2044 119
2199 2054 2027 2050 118
2039 2067 2028 2053 118
1902 2048 2011 2047 118
2192 2060 2054 2084 117
2093 2066 1973 2054 117
1866 2042 2015 2039 116
2102 2060 2084 2059 116
2176 2074 2206 2100 115
1918 2092 2170 2107 115
2023 2057 2032 2034 115
2202 2053 1900 2039 114
1978 2060 2048 2072 114
1937 2052 2129 2070 113
2212 2051 2107 2059 113
2043 2054 2061 2036 112
1896 2051 1967 2030 112
2170 2065 2024 2059 112
2137 2061 2034 2049 111
1892 2056 1994 2041 111
2092 2057 2017 2048 110
2200 2061 2047 2061 110
1938 2065 2037 2056 109
2010 2055 1967 2027 109
2247 2070 2005 2053 108
2015 2072 1984 2046 108
1951 2073 2148 2111 107
2222 2068 2136 2096 107
2101 2075 2102 2055 106
1900 2059 2091 2073 106
2142 2056 2002 2025 105
2142 2036 2022 2027 104
1869 2040 2078 2060 104
2041 2039 2109 2065 103
2206 2053 2078 2071 103
1941 2042 1999 2012 102
1978 2039 1983 2020 102
2200 2048 2018 2040 101
1977 2055 2025 2034 101
1942 2054 2018 2036 100
2222 2079 2048 2069 99
2125 2075 2030 2058 99
1892 2066 1983 2036 98
2102 2054 1984 2029 98
2160 2055 2008 2051 97
1909 2050 2084 2090 97
2037 2042 1994 2005 96
2206 2055 2152 2098 96
1942 2048 2059 2019 95
1953 2051 2118 2049 94
2212 2061 2149 2084 94
2033 2057 2080 2066 93
1902 2059 2044 2056 92
2182 2068 1997 2042 92
2117 2057 1988 2033 91
1836 2049 1996 2049 91
2143 2060 2024 2052 90
2202 2066 2040 2055 90
1948 2062 2043 2063 89
2033 2054 2003 2030 89
2197 2061 2008 2035 88
1970 2070 2041 2055 87
1949 2062 1993 2042 87
2231 2064 1984 2024 86
2064 2060 2042 2055 86
1892 2054 2130 2085 85
2149 2060 2166 2105 84
2153 2067 2116 2077 83
1903 2065 2065 2059 83
2088 2070 2053 2054 82
2217 2059 2009 2039 81
1926 2048 2033 2049 81
1983 2049 2059 2049 80
2223 2058 2074 2057 79
2002 2054 2037 2045 79
1908 2045 1995 2021 78
2181 2049 2008 2040 77
2082 2050 1992 2026 77
1876 2038 1925 2024 76
2134 2057 1935 2032 75
2182 2062 2084 2065 74
1892 2050 2128 2050 74
2073 2056 2128 2049 73
2215 2059 2053 2045 72
1951 2052 2025 2027 71
1971 2053 2148 2103 71
2253 2072 2081 2068 70
2024 2060 2038 2054 69
1899 2049 2080 2069 68
2185 2061 2069 2063 67
2119 2070 2043 2067 67
1895 2064 1989 2035 66
2124 2072 2024 2053 65
2196 2072 2056 2071 65
1924 2074 2029 2051 64
2039 2072 1983 2040 63
2226 2068 2036 2066 62
1989 2090 2049 2072 62
1944 2053 1984 2030 61
2268 2086 1988 2070 60
2051 2062 2071 2068 60
1904 2067 2128 2072 59
2180 2067 2147 2075 58
2106 2033 2046 2032 57
1908 2064 2089 2055 57
2112 2074 2126 2075 56
2206 2073 2081 2073 55
1925 2057 2008 2043 54
1982 2034 1998 2032 54
2183 2046 2026 2048 53
1938 2024 1977 2026 52
1908 2032 1951 2024 51
2183 2056 2010 2062 50
2059 2062 2046 2056 50
1882 2049 2092 2048 49
2141 2046 2090 2058 48
2127 2052 2046 2046 47
1903 2059 1977 2051 47
2068 2051 1981 2048 46
2209 2054 2070 2066 45
1976 2084 2150 2078 44
2073 2119 2101 2097 43
2298 2126 2072 2111 43
2113 2138 2138 2149 42
2013 2136 2202 2131 41
2266 2111 2171 2131 40
2098 2064 2028 2058 39
1880 2026 1993 2024 39
2078 1999 1980 1996 38
2060 1974 1974 1963 37
1842 2009 1996 1999 36
1980 2006 1955 1997 36
2183 2065 2026 2051 35
1948 2053 2016 2046 34
1957 2053 2015 2041 34
2173 2031 2015 2035 33
2046 2073 2047 2061 32
1914 2064 2033 2045 32
2172 2064 2042 2069 31
2114 2050 2038 2048 30
1857 2033 2018 2029 30
2107 2058 2041 2050 29
2167 2043 2029 2044 29
1906 2045 2031 2048 28
2010 2043 2033 2031 27
2187 2036 2025 2025 27
1960 2044 2023 2036 26
1909 2019 2013 2031 26
2199 2047 2034 2045 25
2076 2072 2041 2052 24
1892 2043 2032 2044 24
2150 2053 2044 2046 23
2128 2048 2038 2056 23
1884 2040 2036 2047 22
2060 2038 2032 2035 22
2186 2051 2031 2042 21
1961 2080 2054 2068 21
2031 2092 2094 2111 20
2246 2095 2062 2066 20
2003 2058 2037 2045 19
1944 2064 2028 2009 19
2184 2052 2025 2025 18
2101 2091 2102 2115 18
1871 2038 2024 2057 17
2132 2048 2019 2052 17
2149 2065 2074 2111 16
1876 2028 1993 2022 16
2043 2037 2019 2041 15
2184 2043 1997 2006 15
1952 2066 2062 2060 15
1954 2032 2056 2061 14
2221 2070 2043 2050 14
2029 2066 2061 2060 13
1913 2054 2052 2051 13
2165 2048 2035 2035 13
2116 2061 2077 2072 13
1890 2060 2052 2048 12
2124 2066 2043 2058 12
2174 2054 2027 2032 12
1907 2054 2014 2041 12
2013 2052 2029 2050 11
2226 2071 2048 2071 11
1965 2056 2025 2035 11
1969 2062 2078 2064 11
2215 2082 2086 2097 10
2087 2099 2060 2056 10
1915 2074 2005 2025 10
2183 2082 2063 2070 10
2133 2075 2052 2079 9
1885 2049 2025 2035 9
2093 2056 2027 2040 9
2202 2070 2051 2060 9
1922 2057 2049 2051 8
2009 2049 2042 2068 8
2217 2065 2046 2050 8
1967 2045 2036 2043 7
1933 2050 2037 2044 7
2207 2059 2043 2041 7
2055 2048 2052 2056 7
1926 2083 2034 2033 6
2156 2064 2051 2067 6
2151 2058 2004 2018 6
1920 2071 2085 2061 6
2067 2040 2024 1989 5
2191 2055 2084 2098 5
1947 2062 1982 2051 5
2020 2080 2046 2101 5
2220 2064 2019 2061 5
2024 2082 2048 2063 4
1936 2055 2059 2061 4
2200 2067 2056 2065 4
2103 2069 2065 2064 4
1885 2052 2045 2040 3
2141 2067 2057 2060 3
2161 2068 2059 2068 3
1912 2068 2058 2056 3
2050 2063 2049 2048 2
2213 2050 2038 2038 2
1950 2057 2041 2051 2
1942 2030 2025 1998 2
2267 2087 2085 2084 2
2046 2067 2039 2060 1
1915 2063 2036 2034 1
2172 2040 1984 2030 1
2105 2052 2057 2068 1
1868 2050 2070 2106 1
2086 2034 2047 2092 1
2173 2047 1986 2037 1
1894 2056 2026 2039 1
2031 2070 2064 2066 1
2231 2069 2080 2068 0
1956 2044 2036 2044 0
1953 2060 2049 2056 0
2209 2057 2053 2055 0
2050 2052 2047 2049 0
1885 2040 2026 2023 0
2144 2039 2031 2043 0
2100 2026 2008 2011 0
1917 2075 2053 2051 0
2094 2060 2028 2023 0
2223 2093 2057 2066 0
1929 2053 2021 2039 0
1999 2058 2017 2001 0
2226 2062 2048 2030 0
1993 2053 2020 2057 0
1907 2036 2031 2049 0
2224 2071 2029 2072 0
2091 2073 2034 2054 0
1881 2051 2043 2053 0
2168 2067 2055 2065 0
2153 2063 2052 2042 0
1889 2045 2046 2046 0
2047 2049 2048 2050 0
2220 2068 2049 2062 0
1946 2061 2039 2051 0
1987 2060 2038 2057 0
2240 2065 2058 2065 0
2009 2043 2030 2042 0
1925 2064 2044 2062 0
2180 2052 2052 2055 0
2136 2079 2079 2074 0
1886 2050 2049 2050 0
2093 2030 2029 2040 0
2199 2065 2057 2065 0
1907 2080 2046 2050 0
2044 2058 2056 2060 0
2215 2059 2041 2063 0
1955 2060 2037 2064 0
1959 2063 2040 2056 0
2216 2058 2046 2053 0
2016 2034 2028 2039 0
1886 2036 2022 2033 0
2183 2066 2044 2053 0
2112 2051 2038 2044 0
1872 2040 2030 2044 0
2103 2049 2039 2047 1
2171 2048 2025 2048 1
1932 2073 2027 2052 1
2020 2049 2005 2039 1
2224 2068 1984 2063 2
2022 2101 2007 2078 2
1974 2083 2036 2087 2
2231 2079 2109 2087 3
2063 2063 2158 2090 3
1910 2060 2151 2053 3
2152 2058 2090 2050 4
2139 2052 2022 2044 4
1901 2055 2016 2045 4
2063 2053 2050 2042 5
2190 2057 2130 2066 5
1946 2068 2119 2070 5
1984 2057 2062 2061 6
2217 2066 2023 2048 6
1999 2048 2003 2037 6
1939 2059 1995 2030 7
2198 2073 1990 2049 7
2120 2094 1981 2047 8
1914 2066 1952 2040 8
2151 2065 1936 2002 8
2166 2068 2004 2044 9
1899 2055 2052 2052 9
2042 2061 2141 2090 9
2192 2067 2254 2150 10
1950 2069 2151 2082 10
1976 2060 2094 2061 10
2210 2059 2006 2031 11
2028 2061 2027 2057 11
1916 2052 2075 2058 12
2191 2053 2073 2074 12
2112 2055 2029 2050 12
1897 2046 1928 2001 13
2105 2046 1932 2012 13
2181 2061 2001 2034 14
1946 2078 2080 2110 14
2063 2101 2033 2110 15
2236 2079 2052 2066 15
1956 2045 2028 2055 16
1927 2032 2054 2024 16
2179 2028 2004 2019 17
2042 2040 2003 2020 17
1907 2052 2148 2095 18
2165 2065 2039 2048 18
2143 2068 1955 2021 19
1902 2052 1851 2009 19
2069 2039 2108 2070 20
2175 2049 2263 2094 20
1905 2054 2210 2068 21
2001 2059 2050 2030 21
2206 2054 1991 2030 22
1975 2040 1995 2046 22
1905 2030 1962 2030 23
2162 2040 1996 2031 23
2082 2065 2105 2104 24
1923 2071 2091 2068 24
2169 2080 1990 2054 25
2188 2082 1930 2030 26
1903 2064 2043 2059 26
2051 2047 2166 2048 27
2187 2055 2176 2065 28
1917 2036 2051 2028 28
1972 2046 1977 2029 29
2194 2051 1991 2045 29
2002 2052 2043 2057 30
1918 2053 1970 2023 31
2179 2060 2024 2066 31
2108 2070 1930 2024 32
1914 2064 1882 2015 32
2134 2070 1979 2090 33
2176 2078 2232 2116 34
1919 2080 2278 2095 34
2033 2062 2111 2055 35
2211 2065 1908 2024 35
1967 2055 1899 2024 36
1950 2047 2079 2044 37
2157 2026 2141 2038 37
2045 2038 2143 2036 38
1889 2038 2145 2089 38
2194 2064 2013 2077 39
2166 2084 1923 2049 39
1897 2079 1929 2064 40
2103 2071 2156 2115 41
2193 2067 2209 2097 41
1927 2060 2084 2043 42
2019 2071 1992 2029 42
2230 2084 1981 2046 43
2005 2077 1996 2045 44
1964 2080 1980 2064 44
2224 2074 2050 2074 45
2059 2060 2092 2069 46
1892 2046 1917 2008 46
2160 2061 1886 2035 47
2149 2073 2122 2078 47
1907 2075 2351 2122 48
2112 2077 2143 2073 49
2202 2071 1950 2051 49
1953 2068 1949 2024 50
2019 2062 2167 2087 50
2226 2052 2072 2047 51
2024 2047 2015 2032 52
1950 2034 2003 2027 52
2183 2039 2116 2074 53
2037 2054 1909 2026 53
1859 2059 1839 2012 54
2111 2061 1966 1996 55
2154 2072 2202 2076 55
1915 2067 2210 2066 56
2058 2064 2101 2087 56
2196 2070 1881 2024 57
1936 2063 1919 2030 58
1967 2056 2111 2049 58
2202 2056 2167 2086 59
2015 2068 2018 2076 59
1906 2046 1954 2015 60
2169 2045 1984 1990 61
2096 2041 2128 2018 61
1873 2030 2053 2024 62
2099 2041 1968 2047 62
2189 2076 2073 2046 63
1932 2064 2197 2133 64
2051 2075 2016 2048 64
2212 2063 1831 2000 65
1957 2060 1899 2006 65
1954 2064 2126 2049 66
2196 2051 2069 2055 67
2027 2052 2164 2062 67
1904 2058 2204 2090 68
2158 2057 2114 2076 68
2133 2070 1941 2037 69
1926 2080 1947 2051 70
2115 2085 2151 2096 70
2221 2097 2143 2094 71
1954 2077 1943 2038 71
2014 2052 1925 2024 72
2231 2082 2006 2069 73
1972 2070 2048 2076 73
1950 2063 1888 1955 74
2205 2046 2135 2063 74
2057 2041 2303 2111 75
1887 2033 1967 2058 76
2131 2031 1847 1987 76
2117 2039 2051 2018 77
1880 2048 2271 2094 77
2050 2046 2101 2014 78
2194 2043 1764 1972 79
1922 2040 1919 1981 79
1971 2062 2232 2131 80
2207 2075 2161 2104 80
1972 2054 1996 2020 81
1979 2075 2024 2042 81
2216 2073 1968 2019 82
2110 2087 2071 2107 83
1934 2069 1981 2043 83
2119 2063 2031 2095 84
2144 2042 1989 2020 84
1895 2039 2033 2044 85
2032 2048 2085 2044 85
2210 2079 2094 2071 86
1959 2072 2026 2046 86
1962 2046 2116 2030 87
2212 2059 2230 2066 88
2030 2066 2018 2052 88
1913 2050 1878 2002 89
2178 2052 1939 1988 89
2041 2047 2161 2111 90
1897 2046 2114 2040 90
2100 2039 1976 2060 91
2187 2045 1962 2024 91
1923 2050 2053 2044 92
2011 2050 1862 1998 92
2203 2068 1798 1986 93
1980 2085 2120 2074 93
2000 2088 2214 2139 94
2191 2073 2327 2182 94
2071 2071 2008 2058 95
1868 2014 1815 1929 95
2144 2037 2196 2067 96
2121 2045 2211 2068 97
1885 2049 2138 2094 97
2104 2050 1974 2025 98
2206 2056 1997 2037 98
1930 2064 1981 2052 99
1975 2071 1984 2069 99
2238 2074 2023 2051 100
2025 2074 2156 2103 100
1929 2070 2030 2032 101
2218 2041 1786 1950 101
2080 2053 2104 2077 102
1881 2065 2290 2112 102
2159 2068 2095 2057 103
2199 2090 1828 2000 103
1916 2087 2027 2125 104
2065 2077 2368 2181 104
2230 2074 2141 2054 105
1965 2053 1726 1950 105
1987 2063 1879 2088 106
2207 2063 2138 2101 106
2047 2067 2332 2108 107
1928 2054 1892 1968 107
2179 2056 1921 2022 108
2105 2068 2218 2185 108
1875 2049 2152 2107 109
2098 2041 2133 2041 109
2165 2043 2003 2024 110
1865 2028 1848 2010 110
2035 2037 1731 1975 111
2217 2037 2031 1980 111
1981 2067 2231 2032 111
1977 2055 2336 2083 112
2245 2080 2170 2131 112
2053 2068 1847 2048 113
1876 2038 1893 2033 113
2198 2072 2093 2084 113
2126 2061 2056 2046 114
1907 2067 2240 2086 114
2083 2029 1721 1966 115
2179 2036 1634 1984 115
1926 2087 2342 2138 115
2009 2079 2355 2118 116
2194 2067 2126 2048 116
1998 2056 1865 2018 117
1889 2060 2144 2072 117
2203 2085 2299 2108 117
2083 2057 2119 2046 118
1870 2012 1351 1897 118
2116 2058 2050 2065 118
2141 2093 2423 2213 119
1896 2080 2363 2110 119
2083 2067 2098 2057 119
2190 2029 1572 1929 120
1923 2050 1832 2001 120
2008 2087 2276 2185 120
2234 2059 2301 2139 120
2012 2057 1959 2045 121
1948 2031 1552 1896 121
2233 2056 1824 1981 121
2086 2091 2518 2153 122
1907 2084 2446 2130 122
2151 2055 2041 2024 122
2143 2029 1746 1946 123
1897 2057 2160 2121 123
2045 2053 2244 2084 123
2221 2073 2062 2070 123
1963 2030 1677 1946 123
1955 2037 1896 2108 124
2228 2084 2279 2095 124
2057 2091 2291 2095 124
1921 2082 2269 2108 124
2187 2045 1839 2004 125
2075 2012 1673 1940 125
1908 2046 2034 2091 125
2086 2041 2274 2053 125
2208 2045 2108 1989 125
1879 2007 1994 1977 126
2047 2031 1871 2041 126
2228 2088 2228 2200 126
1975 2091 2288 2105 126
1985 2079 1929 2044 126
2168 2026 1779 1961 126
2011 2054 2078 2060 126
1925 2054 2202 2084 127
2151 2063 2180 2024 127
2126 2030 1828 1941 127
1854 2020 1862 2031 127
2011 2021 2042 1991 127
2214 2065 2189 2148 127
1937 2057 1999 2062 127
2001 2038 1798 2029 127
2216 2044 1874 1975 127
1980 2069 2136 2031 127
1952 2075 2193 2071 128
2227 2059 1902 2019 128
2078 2071 2178 2184 128
1882 2073 2241 2070 128
2132 2074 2205 2073 128
2162 2063 1932 1985 128
1890 2060 1886 2039 128
2092 2073 2039 2070 128
2218 2083 2142 2099 128
1945 2058 2004 2056 128
1982 2040 1957 2001 128
2240 2066 1940 2039 128
2011 2070 2023 2044 128
1929 2050 1989 1999 128
2190 2042 2120 2095 128
2097 2072 2214 2092 128
1891 2072 2131 2117 128
2145 2072 2041 2070 128
2173 2064 2036 2059 128
1900 2057 2033 2047 128
2031 2037 1969 2016 128
2217 2054 1958 2032 128
1965 2059 2091 2079 128
1964 2052 2063 2027 128
2222 2057 2079 2044 128
2035 2066 1913 2051 128
1900 2054 1871 2022 128
2205 2072 2066 2051 128
2126 2061 2120 2043 128
1903 2064 2159 2057 128
2119 2070 2055 2068 128
2194 2078 1976 2047 128
1908 2056 1988 2032 128
2028 2059 2053 2064 128
2229 2065 2041 2059 128
1977 2061 2090 2076 128
1952 2069 2049 2079 128
2212 2049 1960 2032 127
2072 2062 2014 2033 127
1921 2070 2103 2063 127
2160 2061 2072 2071 127
2143 2078 2066 2067 127
1904 2058 2013 2050 127
2061 2053 2017 2044 127
2206 2069 2010 2057 126
1928 2054 2048 2042 126
1990 2049 1950 2017 126
2174 2058 2110 2061 126
2042 2076 2119 2097 126
1923 2061 2049 2034 126
2238 2084 2077 2078 125
2101 2068 2007 2038 125
1881 2065 2084 2077 125
2141 2060 2114 2063 125
2162 2064 2026 2034 124
1891 2057 2096 2072 124
2054 2053 2025 2039 124
2198 2055 2004 2038 124
1940 2061 2038 2053 124
1974 2050 2018 2041 123
2200 2058 2020 2043 123
2024 2066 2052 2065 123
1914 2050 1990 2048 123
2192 2055 2036 2057 122
2107 2067 2072 2064 122
1913 2064 2029 2040 122
2126 2066 2018 2050 121
2204 2074 2058 2079 121
1908 2069 2036 2067 121
2035 2053 2057 2023 120
2217 2052 2072 2032 120
1951 2050 2122 2058 119
1940 2054 2112 2081 119
2220 2067 2087 2097 119
2042 2068 2002 2029 118
1895 2056 2029 2036 118
2160 2065 2011 2048 117
2101 2070 1983 2044 117
1918 2069 2038 2047 116
2113 2075 2068 2069 116
2232 2084 2063 2060 116
1921 2075 2004 2045 115
1995 2063 2035 2076 115
2218 2063 2066 2083 114
1982 2052 2021 2053 114
1934 2048 1997 2030 113
2188 2035 2013 2031 113
2037 2039 2099 2063 112
1882 2058 2122 2066 112
2138 2055 2085 2060 111
2156 2068 2030 2062 111
1898 2057 2013 2042 110
2088 2054 2020 2050 109
2225 2068 2128 2078 109
1933 2054 2111 2066 108
1992 2044 2090 2058 108
2222 2043 1987 2026 107
2007 2030 1932 1985 107
1893 2036 1979 2021 106
2196 2034 2057 2056 105
2066 2036 2078 2055 105
1874 2034 2052 2040 104
2144 2049 1909 1977 104
2156 2055 1982 2050 103
1889 2069 2140 2102 103
2066 2072 2174 2113 102
2236 2085 2154 2122 101
1969 2077 2021 2059 101
1984 2062 1972 2025 100
2228 2059 2007 2046 100
2015 2052 2056 2065 99
1902 2049 2092 2080 99
2184 2064 2092 2073 98
2120 2065 2022 2046 97
1900 2061 2001 2035 97
2125 2065 2017 2054 96
2177 2058 2050 2046 96
1875 2032 2024 2029 95
2008 2033 2012 2024 95
2206 2053 2057 2049 94
1954 2060 2076 2063 94
1918 2051 2004 2002 93
2192 2044 2033 2038 92
2076 2064 2095 2100 92
1910 2066 2067 2073 91
2233 2077 2070 2093 91
2149 2064 2002 2033 90
1874 2052 2030 2042 89
2090 2052 2044 2060 89
2197 2059 2017 2038 88
1909 2048 1968 2015 87
1976 2029 1997 2026 87
2195 2037 2102 2049 86
1959 2047 2165 2112 85
1929 2065 2091 2072 84
2223 2075 2014 2076 84
2101 2080 2031 2067 83
1891 2068 2084 2063 82
2163 2067 2122 2070 81
2156 2072 2070 2056 81
1912 2073 2042 2056 80
2071 2076 2042 2050 79
2216 2066 2041 2051 79
1966 2049 2014 2037 78
1996 2059 2007 2050 77
2244 2069 2021 2064 77
2038 2083 2034 2066 76
1923 2066 1976 2036 75
2179 2053 2011 2057 74
2109 2065 2051 2071 74
1871 2048 2145 2100 73
2131 2053 2095 2069 72
2160 2036 1984 2013 71
1879 2029 2015 2027 70
2012 2031 2149 2063 70
2203 2050 2160 2061 69
1953 2052 2077 2043 68
1977 2070 1999 2049 68
2236 2070 2015 2054 67
2048 2071 2041 2057 66
1906 2050 2003 2035 66
2183 2063 2017 2047 65
2140 2086 2052 2080 64
1921 2088 2066 2085 64
2163 2101 2062 2112 63
2208 2084 2048 2067 62
1908 2042 2018 2031 62
2024 2054 2026 2049 61
2219 2057 2075 2063 60
1974 2064 2021 2035 60
1946 2060 2018 2052 59
2190 2052 2020 2039 58
2041 2059 2036 2068 58
1877 2037 1938 2020 57
2142 2029 1944 2002 56
2117 2042 2116 2067 55
1855 2036 2220 2062 55
2042 2031 2183 2060 54
2154 2043 2053 2045 53
1921 2060 2041 2061 53
2004 2069 2063 2076 52
2245 2091 2051 2078 51
2029 2100 2023 2076 51
1940 2070 2015 2052 50
2198 2051 2001 2038 50
2054 2023 1979 2008 49
1861 2028 1987 2013 49
2119 2034 2003 2026 48
2138 2024 1993 2027 48
1884 2038 2015 2031 47
2050 2040 2023 2035 47
2175 2026 2016 2021 46
1947 2047 2026 2037 46
1968 2039 2030 2037 45
2229 2068 2042 2055 45
2039 2062 2053 2069 44
1932 2088 2054 2072 44
2207 2078 2068 2081 44
2111 2074 2044 2060 43
1913 2070 2047 2070 42
2137 2080 2059 2068 42
2177 2058 2069 2071 41
1906 2057 2068 2054 41
2018 2056 2058 2050 40
2224 2077 2071 2071 40
1961 2071 2059 2071 39
1982 2092 2078 2093 38
2187 2046 2032 2039 38
2011 2045 1987 2018 37
1879 2042 1993 2032 36
2167 2061 2064 2082 36
2139 2081 2128 2100 35
1921 2080 2129 2087 34
2106 2070 2082 2049 33
2196 2060 2032 2048 33
1919 2041 2012 2025 32
2008 2041 2012 2030 31
2231 2063 2028 2052 31
1991 2060 2024 2044 30
1992 2071 2055 2075 29
2213 2072 2032 2050 29
2069 2058 2031 2048 28
1897 2037 2012 2026 27
2139 2048 2031 2047 27
2147 2079 2049 2056 26
1914 2063 2056 2069 26
2069 2051 2041 2052 25
2184 2050 2044 2046 24
1942 2055 2054 2065 24
2001 2065 2033 2036 23
2211 2053 2042 2046 23
1970 2030 2035 2043 22
1938 2066 2057 2065 22
2194 2072 2062 2070 21
2096 2067 2032 2057 21
1888 2039 2008 2031 20
2082 2018 2001 2030 20
2135 2051 2028 2038 20
1909 2060 2051 2055 19
2063 2072 2057 2065 19
2219 2084 2090 2094 18
1960 2072 2063 2072 18
1977 2062 2048 2034 17
2204 2063 2076 2077 17
2030 2062 2032 2029 17
1911 2057 2052 2072 16
2169 2044 2007 2023 16
2097 2045 2029 2047 16
1877 2043 2027 2031 16
2094 2050 2046 2044 15
2172 2051 2046 2049 15
1904 2046 2023 2028 15
2004 2047 2026 2040 15
2240 2087 2061 2068 14
1965 2058 2042 2042 14
1970 2087 2076 2082 14
2219 2081 2052 2068 14
2077 2084 2053 2063 14
1906 2057 2041 2009 14
2185 2085 2136 2133 13
2124 2054 1987 2019 13
1886 2080 2057 2098 13
2075 2043 1984 2008 13
2192 2048 2030 2031 13
1918 2058 2063 2060 13
1990 2048 2006 2022 12
2223 2066 2052 2058 12
2014 2087 2047 2049 12
1973 2092 2080 2092 12
2219 2079 2062 2073 12
2088 2069 2076 2078 11
1912 2067 2046 2056 11
2135 2041 2036 2035 11
2142 2058 2036 2035 10
1868 2017 2012 2004 10
2047 2038 2026 2033 10
2200 2059 2031 2042 10
1951 2063 2021 2029 9
1973 2036 1999 2001 9
2199 2046 2032 2043 9
1999 2061 2004 2058 9
1917 2054 2025 2054 8
2175 2044 2025 2047 8
2097 2066 2044 2048 8
1890 2056 2053 2055 8
2134 2061 2055 2073 7
2178 2070 2046 2048 7
1926 2065 2072 2081 7
2055 2068 2055 2060 7
2223 2062 2056 2063 6
1993 2092 2063 2056 6
2003 2088 2099 2104 6
2243 2080 2063 2072 6
2043 2054 2012 2026 6
1909 2055 2044 2043 5
2222 2107 2104 2106 5
2123 2065 2063 2063 5
1908 2080 2049 2055 5
2099 2048 2010 2043 5
2198 2091 2086 2121 4
1923 2069 2046 2071 4
2033 2067 2045 2061 4
2207 2055 2032 2042 4
1982 2066 2072 2071 4
1950 2057 2059 2048 4
2245 2086 2080 2081 3
2073 2066 2055 2064 3
1895 2066 2044 2048 3
2151 2044 2024 2023 3
2124 2043 2032 2040 3
1892 2064 2048 2042 3
2051 2031 2024 2023 2
2184 2048 2024 2033 2
1926 2050 2057 2056 2
1993 2064 2041 2041 2
2222 2069 2051 2033 2
2007 2061 2094 2113 2
1935 2062 2069 2123 2
2198 2065 2003 2069 2
2091 2070 2035 2080 1
1878 2042 2012 2032 1
2136 2061 2051 2041 1
2158 2060 2065 2071 1
1919 2084 2065 2073 1
2035 2036 2025 2029 1
2184 2039 2047 2045 1
1920 2033 2018 2023 0
1976 2049 2043 2042 0
2216 2053 2043 2048 0
2028 2065 2059 2057 0
1898 2033 2029 2043 0
2202 2084 2046 2056 0
2103 2054 2040 2042 0
1864 2039 2018 2003 0
2094 2025 2059 2064 0
2156 2033 2000 1997 0
1905 2058 2035 1996 0
2082 2098 2083 2074 0
2237 2086 2063 2147 0
1948 2064 2031 2092 0
1957 2056 2018 2029 0
2232 2075 2143 2142 0
2048 2070 2059 2066 0
1900 2061 2027 2072 0
2179 2061 2026 2040 0
2123 2056 2061 2049 0
1879 2053 2053 2070 0
2097 2053 2047 2044 0
2188 2053 2055 2047 0
1915 2056 2056 2055 0
2016 2056 2038 2043 0
2226 2071 2053 2058 0
1983 2046 2038 2044 0
1960 2079 2056 2073 0
2206 2063 2043 2056 0
2079 2072 2055 2066 0
1897 2053 2035 2048 0
2153 2058 2048 2060 0
2108 2035 2031 2041 0
1893 2056 2028 2023 0
2062 2045 2035 2048 0
2228 2084 2057 2063 0
1929 2044 2015 2022 0
1990 2059 2030 2072 0
2210 2051 2037 2058 0
2009 2055 2031 2060 0
1912 2052 2042 2040 0
2177 2043 2034 2039 0
2119 2085 2019 2060 0
1891 2061 1997 2036 0
2123 2057 1982 2037 0
2181 2067 2021 2063 0
1887 2042 2090 2061 0
2056 2056 2137 2066 0
2239 2079 2126 2064 0
1956 2065 2067 2045 0
1974 2064 2014 2048 0
2218 2060 2051 2071 0
2029 2062 2085 2055 1
1909 2058 2094 2060 1
2195 2071 2024 2046 1
2130 2071 1985 2055 1
1898 2068 1972 2062 1
2113 2065 2033 2078 1
2206 2083 2063 2071 1
1933 2073 2051 2048 2
2041 2075 1990 2024 2
2222 2057 2042 2042 2
1952 2040 2113 2048 2
1910 2032 2191 2070 3
2184 2044 2156 2086 3
2048 2049 2091 2079 3
1901 2061 2008 2070 3
2169 2064 2010 2044 4
2140 2055 1966 2019 4
1881 2037 1984 2030 4
2064 2037 2008 2030 5
2181 2046 1989 2038 5
1921 2052 1933 2009 6
2017 2055 1878 2016 6
2209 2056 1980 2060 7
1994 2060 2088 2066 7
1920 2053 2221 2132 7
2202 2064 2208 2076 8
2079 2071 2117 2076 8
1896 2051 2051 2025 9
2143 2052 2048 2038 9
2156 2068 2032 2051 10
1922 2078 1941 2039 11
2090 2096 1851 2043 11
2218 2075 1993 2079 12
1953 2070 2210 2104 12
1984 2066 2254 2094 13
2217 2054 2018 2025 13
2036 2067 1916 2056 14
1939 2075 2043 2054 15
2193 2081 2283 2152 15
2094 2069 2211 2100 16
1901 2058 2006 2024 17
2105 2036 1894 1993 17
2150 2050 1953 2020 18
1903 2035 1947 2021 19
2016 2040 1924 2025 20
2208 2065 1930 2018 20
1950 2051 2093 2098 21
1953 2056 2093 2095 22
2199 2052 2090 2073 23
2064 2072 2062 2048 23
1945 2067 2046 2039 24
2198 2089 2155 2051 25
2108 2061 2140 2070 26
1880 2041 1965 2037 26
2105 2043 1864 2040 27
2182 2051 1871 2015 28
1902 2044 2160 2066 29
1992 2045 2245 2060 30
2176 2043 2182 2060 31
1959 2046 1978 2005 31
1927 2036 1873 2007 32
2187 2040 1924 2019 33
2057 2066 2071 2062 34
1912 2077 2282 2146 35
2151 2065 2234 2100 36
2134 2052 2054 2040 37
1892 2056 1856 1982 38
2081 2066 1824 2001 39
2235 2093 1916 2088 39
1954 2076 2050 2082 40
2034 2096 2172 2144 41
2223 2084 2014 2080 42
1982 2071 2017 2065 43
1943 2056 2069 2028 44
2202 2054 2135 2020 45
2116 2089 2216 2098 46
1936 2088 2143 2114 46
2151 2089 2102 2112 47
2174 2085 2053 2096 48
1927 2080 1997 2036 49
2067 2051 2047 2049 50
2218 2070 2077 2087 51
1938 2048 1978 2037 52
1950 2032 1931 2016 52
2189 2032 2017 2020 53
2008 2038 1999 1986 54
1940 2017 1955 1992 55
2200 2036 2028 2004 56
2124 2039 2163 2105 57
1878 2045 1976 2056 57
2073 2045 1694 1995 58
2136 2062 2045 2070 59
1882 2065 2421 2137 60
1994 2072 2381 2112 60
2194 2067 1940 2017 61
1950 2053 1755 1960 62
1930 2052 2020 2045 63
2185 2060 2175 2094 64
2048 2063 2078 2091 65
1898 2062 1869 2017 65
2152 2055 1926 2044 66
2148 2065 2157 2051 67
1892 2059 2281 2142 68
2093 2062 2156 2101 68
2200 2044 1962 2004 69
1916 2038 1873 1970 70
2009 2049 2045 2025 71
2218 2060 2047 2095 72
2003 2073 1976 2053 72
1944 2067 2148 2108 73
2217 2077 1898 2002 74
2065 2053 1982 2077 75
1907 2068 2185 2080 76
2152 2072 2117 2082 76
2145 2062 2025 2053 77
1895 2050 1728 1915 78
2080 2065 2158 2102 79
2216 2089 2480 2233 80
1966 2073 2080 2095 80
1954 2038 1889 2031 81
2227 2051 2040 1998 82
2019 2037 1911 1940 83
1919 2025 1979 2003 83
2204 2053 1949 2032 84
2071 2065 1898 2037 85
1861 2066 2035 2049 86
2129 2067 2129 2082 86
2161 2057 2283 2124 87
1901 2059 2082 2094 88
2031 2059 1898 2041 89
2243 2071 1919 2025 89
1982 2069 2181 2065 90
1976 2054 1972 2005 91
2205 2037 1822 1979 91
1988 2050 2173 2074 92
1929 2068 2429 2172 93
2180 2031 2148 2024 94
2130 2052 1929 2010 94
1903 2049 1911 2080 95
2111 2068 1871 2032 96
2216 2108 2179 2159 96
1938 2093 2140 2110 97
2048 2096 2078 2057 98
2221 2060 2024 2062 98
1944 2036 1769 1978 99
1903 2037 2042 2005 99
2224 2083 2371 2163 100
2079 2073 2189 2134 101
1922 2065 1921 2080 101
2199 2068 1766 1936 102
2129 2054 2049 2045 102
1860 2047 2126 2026 103
2096 2049 1817 2004 104
2171 2042 1906 1992 104
1923 2071 2466 2139 105
2031 2074 2494 2176 105
2245 2066 2133 2079 106
2025 2072 1761 1990 107
1939 2054 1807 2030 107
2230 2096 2033 2107 108
2092 2079 2151 2096 108
1928 2075 1997 2034 109
2129 2048 2074 2062 109
2090 2047 2061 2071 110
1871 2002 1998 2058 110
2052 2047 2169 2074 111
2200 2028 1867 1972 111
1938 2035 1813 1962 112
1934 2021 2012 2011 112
2212 2063 2327 2171 113
2020 2052 2140 2084 113
1926 2060 1794 1974 114
2183 2043 1930 1975 114
2128 2088 2322 2111 114
1901 2067 2127 2084 115
2163 2087 2006 2101 115
2168 2054 1847 1976 116
1904 2069 2071 2005 116
2015 2051 2200 2053 117
2215 2085 2182 2088 117
1912 2042 1900 2025 117
1918 2035 1871 2031 118
2193 2027 1960 1998 118
2061 2036 1892 2013 118
1861 2012 1940 2000 119
2198 2053 2203 2060 119
2091 2067 2136 2125 119
1873 2087 2178 2141 120
2107 2048 1854 2020 120
2165 2020 1834 1894 120
1900 2069 2311 2146 121
1953 2080 2262 2143 121
2283 2096 2067 2141 121
2026 2068 1822 2044 122
1966 2046 2042 2048 122
2253 2064 2198 2058 122
2047 2075 2154 2075 122
1944 2072 2003 2018 123
2175 2031 1741 2000 123
2147 2032 2017 1993 123
1872 2042 2103 2050 123
2089 2076 2320 2121 124
2224 2080 2200 2146 124
1965 2040 1731 1990 124
2011 2039 1846 2015 124
2161 2035 1904 1964 124
2010 2070 2212 2117 125
1921 2039 2094 2001 125
2202 2061 2030 2087 125
2094 2086 2150 2109 125
1882 2070 2048 2084 125
2182 2085 2090 2110 126
2152 2036 1740 1966 126
1888 2046 1879 1975 126
2081 2057 2116 2077 126
2218 2062 2077 2035 126
1942 2052 2172 2101 126
1977 2078 2284 2107 126
2171 2033 1954 2038 127
2032 2065 2057 2027 127
1956 2069 1918 2020 127
2159 2064 1846 2008 127
2154 2091 2330 2122 127
1900 2044 2019 2061 127
2059 2008 1462 1863 127
2209 2056 2009 2011 128
1922 2082 2485 2228 128
2026 2105 2674 2177 128
2237 2108 2288 2170 128
1956 2001 1515 1901 128
1947 2040 1910 1974 128
2200 2068 2187 2088 128
2059 2055 1830 1985 128
1897 2045 1902 2014 128
2138 2049 2065 2105 128
2098 2058 2211 2118 128
1895 2077 2136 2123 129
2107 2037 1913 2008 129
2227 2079 2164 2093 129
1922 2068 2172 2063 129
2036 2060 2209 2069 129
2218 2023 1675 1941 129
1991 2066 1808 2019 129
1930 2047 2082 1973 129
2192 2076 2319 2150 129
2077 2078 2233 2126 129
1904 2047 1785 1991 129
2148 2054 1941 2041 129
2165 2060 1959 2041 129
1900 2062 2096 2104 129
2093 2096 2349 2168 129
2220 2074 2017 2029 129
1943 2067 2080 2022 129
1987 2048 1973 2068 129
2202 2040 1845 2025 129
2020 2087 2354 2171 129
1914 2049 2014 1998 129
2210 2086 2138 2087 129
2082 2034 1882 1994 129
1894 2052 2041 2031 129
2127 2063 2087 2075 129
2164 2070 1939 2054 129
1897 2033 1710 1969 129
2048 2039 2073 2041 129
2192 2089 2440 2166 129
1996 2083 2317 2099 129
1979 2075 1998 2037 129
2242 2060 1894 2047 129
2035 2054 1961 2031 129
1893 2063 2033 2058 129
2180 2076 2001 2069 129
2125 2088 2085 2104 129
1886 2056 1901 2029 129
2106 2058 1980 2024 129
2188 2063 2085 2062 129
1919 2072 2199 2091 129
2021 2062 2135 2076 129
2219 2071 1857 1969 129
1989 2062 1990 2050 129
1976 2064 2012 2037 129
2199 2072 2136 2131 129
2072 2076 2072 2056 129
1880 2039 2050 2018 129
2170 2069 2118 2054 129
2164 2071 2083 2065 129
1907 2062 2007 2056 128
2096 2065 2029 2056 128
2207 2069 2001 2040 128
1932 2055 2013 2048 128
2017 2067 2063 2046 128
2243 2075 2082 2067 128
2002 2068 2089 2073 128
1932 2056 2048 2055 128
2204 2060 1900 2027 128
2080 2065 1990 2037 127
1878 2059 2087 2058 127
2130 2066 2100 2049 127
2147 2063 2093 2054 127
1920 2083 1964 2057 127
2079 2058 1990 2073 126
2236 2077 2148 2097 126
1937 2061 2090 2058 126
1959 2048 2119 2030 126
2205 2043 2024 2025 126
2002 2042 1999 2037 125
1890 2056 2033 2049 125
2173 2051 2034 2029 125
2096 2046 2018 2029 124
1876 2041 1969 2008 124
2088 2040 1951 2004 124
2189 2070 2100 2099 123
1928 2064 2087 2080 123
2058 2064 2072 2081 123
2224 2069 1951 2036 122
1948 2055 1979 2047 122
1903 2038 2161 2050 122
2184 2055 2117 2057 121
2013 2054 2111 2073 121
1870 2051 1991 2043 120
2180 2054 1979 2029 120
2099 2062 2035 2051 120
1893 2060 2065 2064 119
2116 2058 2057 2049 119
2200 2063 2081 2053 118
1918 2057 1951 2024 118
1996 2049 1946 2015 117
2200 2063 2068 2069 117
1992 2071 2133 2121 116
1967 2069 2081 2064 116
2249 2082 2050 2052 115
2097 2056 1948 2014 115
1909 2063 2082 2063 114
2172 2073 2140 2099 113
2174 2069 2105 2056 113
1909 2070 2073 2068 112
2089 2065 2054 2078 112
2201 2071 2048 2064 111
1927 2064 2058 2064 111
1980 2045 1912 2013 110
2234 2056 2023 2041 110
2025 2055 2114 2080 109
1915 2032 2078 2056 108
2191 2039 2048 2053 108
2080 2044 2014 2035 107
1863 2044 1996 2014 107
2162 2054 1920 2009 106
2168 2056 1935 2045 106
1885 2057 2177 2082 105
2049 2063 2154 2075 104
2215 2059 2107 2057 104
1931 2054 1974 2015 103
1973 2040 1973 2029 102
2202 2054 2018 2015 102
2027 2063 2096 2079 101
1916 2081 2095 2079 101
2199 2075 2090 2071 100
2108 2079 2052 2059 99
1884 2066 2019 2051 99
2106 2063 2016 2056 98
2183 2072 2014 2046 98
1910 2052 2013 2036 97
2023 2052 2053 2048 96
2239 2054 2047 2044 96
1927 2043 1953 2013 95
1951 2042 1975 2025 95
2201 2048 2079 2075 94
2052 2061 2124 2087 93
1893 2056 2066 2030 93
2172 2062 2074 2062 92
2134 2067 2059 2064 91
1894 2056 2038 2065 91
2071 2043 1980 2049 90
2179 2040 1983 2044 89
1906 2046 2103 2051 89
1992 2044 2073 2020 88
2254 2060 2078 2046 87
2020 2058 2012 2053 87
1927 2053 2031 2059 86
2195 2054 1968 2033 85
2109 2061 1972 2034 85
1880 2056 2007 2042 84
2152 2058 2101 2056 83
2173 2070 2140 2086 83
1887 2073 2078 2086 82
2070 2069 2006 2048 81
2204 2066 2007 2022 81
1918 2062 2085 2083 80
1966 2068 2043 2080 79
2209 2063 2079 2092 79
2011 2053 2071 2046 78
1902 2048 2082 2026 77
2184 2058 2065 2063 77
2110 2056 2004 2051 76
1913 2065 2004 2046 75
2126 2069 2030 2054 75
2183 2082 1965 2058 74
1892 2068 1899 2034 73
2080 2062 2066 2076 73
2210 2057 2196 2097 72
1960 2059 2236 2106 71
1976 2062 2158 2099 71
2237 2079 2040 2061 70
2077 2097 2045 2061 70
1948 2089 2055 2083 69
2196 2071 2026 2051 68
2123 2052 2023 2037 68
1876 2029 1994 2019 67
2080 2031 1945 2015 67
2155 2026 1955 2015 66
1884 2019 2033 2031 66
1996 2017 2073 2012 65
2210 2030 1989 2014 64
1919 2019 1893 2009 64
1961 2036 2040 2038 63
2218 2041 2159 2066 63
2078 2056 2094 2042 62
1921 2043 1936 1999 62
2133 2052 1985 2040 61
2102 2063 2202 2108 60
1871 2060 2165 2080 60
2108 2090 2136 2116 59
2243 2114 2026 2088 59
1994 2122 2040 2093 58
2069 2118 2074 2114 57
2259 2105 2070 2095 57
2041 2125 2086 2106 56
1957 2104 2082 2094 56
2209 2093 2052 2077 55
2072 2072 2033 2060 55
1843 2034 1999 2027 54
2058 2019 1952 2005 54
2021 1994 1882 1970 53
1770 2022 1886 1995 53
1901 2000 1993 2002 52
2061 2010 2106 2020 51
1840 2004 2166 2021 51
1928 2028 2123 2030 50
2241 2064 2061 2064 50
2051 2068 2047 2057 49
1962 2060 2014 2056 49
2180 2052 2045 2057 48
2066 2048 2045 2044 47
1861 2048 2041 2048 47
1967 2044 2023 2035 46
1898 2055 2000 2048 46
1996 2056 2019 2052 45
2217 2054 2013 2034 44
2564 2067 2027 2057 44
2323 2058 1994 2060 43
2194 2080 2049 2083 43
2368 2086 2034 2073 42
2260 2110 2027 2089 41
2087 2096 2045 2092 41
2254 2059 2060 2066 40
2237 2060 2154 2067 40
1908 2010 2092 2032 39
2028 2010 2030 2006 38
2032 2021 2033 2017 38
1797 2029 2026 2028 37
1882 2037 2057 2023 36
2047 2044 1996 2009 36
1887 2046 2024 2052 35
1851 2061 2023 2063 35
2188 2099 2068 2111 34
2101 2106 2087 2093 33
1898 2072 2072 2070 33
2123 2058 2042 2045 32
2151 2065 2035 2055 31
1900 2048 2025 2041 31
2067 2060 2030 2049 30
2199 2050 2035 2056 30
1973 2074 2047 2065 29
2030 2094 2066 2079 29
2270 2107 2088 2101 28
2042 2098 2075 2086 27
1935 2082 2063 2071 27
2120 2045 2026 2039 26
2067 2076 2052 2068 26
1841 2043 2032 2041 25
2098 2069 2042 2041 25
2131 2039 2030 2037 24
1864 2020 1997 2007 23
2044 2053 2050 2051 23
2211 2064 2050 2062 22
1982 2072 2057 2076 22
1988 2066 2059 2073 21
2222 2054 2044 2076 21
2064 2099 2086 2095 20
1968 2102 2080 2091 20
2187 2058 2042 2060 19
2126 2059 2053 2066 19
1896 2042 2022 2032 18
2070 2033 2019 2031 17
2189 2066 2071 2072 17
1938 2070 2041 2050 17
2021 2052 2057 2061 16
2212 2064 2029 2027 16
1970 2056 2057 2069 15
1951 2065 2042 2044 15
2195 2065 2062 2078 14
2066 2076 2040 2074 14
1910 2064 2025 2038 14
2169 2075 2075 2078 13
2141 2080 2048 2066 13
1891 2061 2055 2073 12
2079 2058 2044 2069 12
2183 2056 2031 2034 12
1919 2044 2048 2046 11
1979 2040 2035 2039 11
2186 2035 2022 2027 11
1966 2021 2017 2024 10
1883 2008 2002 2012 10
2213 2076 2055 2061 10
2082 2055 2039 2047 10
1892 2043 2027 2035 10
2117 2036 2031 2032 9
2118 2027 2025 2026 9
1884 2047 2019 2010 9
2050 2052 2046 2032 9
2206 2059 2059 2061 9
1950 2061 2034 2057 9
1977 2056 1995 2024 9
2220 2070 2038 2058 9
2026 2061 2036 2019 8
1940 2079 2046 2043 8
2193 2080 2089 2118 8
2112 2082 2036 2065 8
1921 2076 2052 2090 8
2124 2065 2028 2051 8
2171 2072 2050 2057 8
1904 2056 2043 2049 7
2036 2052 2041 2047 7
2204 2062 2055 2050 7
1967 2061 2048 2040 7
1957 2056 2045 2024 6
2226 2072 2049 2058 6
2046 2071 2045 2057 6
1882 2035 2026 2035 6
2194 2064 2038 2035 5
2132 2069 2056 2047 5
1927 2094 2075 2087 5
2133 2080 2073 2110 5
2199 2066 2037 2056 4
1914 2057 2031 2054 4
2006 2047 2046 2048 4
2204 2048 2041 2046 4
1965 2041 2034 2025 3
1922 2036 2045 2035 3
2237 2091 2076 2081 3
2065 2064 2047 2044 3
1885 2036 1990 1997 2
2138 2033 2065 2057 2
2100 2021 1993 2037 2
1865 2048 2017 2046 2
2077 2046 1988 2018 2
2197 2051 2046 2050 1
1944 2070 2062 2077 1
1998 2075 2056 2055 1
2252 2083 2066 2070 1
1982 2041 2037 2033 1
1971 2101 2075 2087 1
2173 2035 2012 2009 0
2071 2052 2025 2049 0
1907 2068 2051 2057 0
2110 2043 2021 2027 0
2151 2058 2019 2027 0
1908 2060 2055 2073 0
2050 2057 2003 2020 0
2227 2079 2067 2076 0
1940 2042 2047 1992 0
1991 2055 2065 2068 0
2209 2062 2069 2083 0
2039 2081 2056 2121 0
1922 2072 2012 2035 0
2182 2062 2046 2049 0
2126 2080 2047 2057 0
1877 2047 2027 2028 0
2110 2056 2037 2053 0
2192 2076 2067 2073 0
1983 2110 2106 2103 0
2076 2092 2070 2080 0
2213 2059 2047 2053 0
1963 2053 2030 2014 0
1999 2090 2043 2067 0
2201 2059 2051 2056 0
2036 2020 2009 2005 0
1859 2009 2017 1998 0
2123 2045 2057 2039 0
2129 2086 1995 2042 0
1900 2048 1997 2048 0
2084 2045 2032 2072 0
2182 2060 2057 2077 0
1928 2070 2036 2039 0
1996 2033 2038 2041 0
2222 2068 2061 2071 0
1998 2068 2052 2057 0
1948 2073 2053 2053 0
2205 2054 2049 2055 0
2079 2065 2065 2063 0
1885 2048 2030 2016 0
2130 2049 2077 2097 0
2160 2065 2007 2027 0
1893 2071 2041 2052 0
2069 2050 2031 2022 0
2216 2056 2047 2024 0
1913 2043 1978 2006 0
1983 2061 2061 2094 0
2225 2057 2023 2028 0
1964 2025 2025 2032 0
1921 2056 2037 2064 0
2207 2071 2057 2072 0
2103 2063 2052 2058 0
1875 2042 2041 2055 0
2129 2055 2045 2048 0
2175 2062 2045 2057 0
1909 2064 2055 2060 0
2064 2065 2062 2075 0
2213 2053 2055 2054 0
1945 2050 2048 2056 0
1989 2075 2057 2080 0
2193 2038 2019 2031 0
2055 2080 2076 2078 0
1918 2063 2030 2047 0
2185 2058 2049 2055 0
2120 2068 2050 2075 0
1904 2061 2046 2060 0
2090 2051 2050 2061 0
2192 2076 2049 2057 0
1904 2048 2036 2045 0
2024 2061 2041 2054 0
2213 2060 2038 2060 0
1972 2060 2046 2048 0
1936 2052 2037 2041 0
2189 2042 2008 2037 0
2064 2061 1997 2043 0
1884 2045 1991 2047 0
2159 2060 2017 2047 0
2145 2054 2052 2062 0
1872 2044 2047 2040 0
2069 2057 2032 2044 0
2203 2060 2039 2049 0
1940 2068 2051 2047 0
1978 2039 2049 2048 0
2231 2057 2087 2062 0
2015 2074 2036 2062 0
1940 2071 2071 2072 0
2197 2059 2134 2071 0
2090 2064 2157 2068 0
1892 2062 2073 2038 0
2135 2066 2034 2046 0
2180 2068 2033 2067 0
1902 2064 2093 2062 0
2060 2064 2049 2042 0
2230 2074 1974 2032 1
1956 2063 1938 2051 1
1981 2062 2015 2064 1
2216 2057 2114 2094 1
2026 2060 2028 2059 1
1928 2052 1930 2034 2
2191 2063 1931 2052 2
2115 2065 2025 2048 2
1873 2053 2190 2080 3
2118 2061 2149 2048 3
2180 2061 2018 2026 4
1889 2039 1958 2013 4
2025 2052 2069 2040 4
2204 2054 2222 2097 5
1961 2063 2232 2091 5
1963 2063 2090 2056 6
2223 2060 2010 2059 6
2048 2067 1989 2045 7
1908 2060 1960 2029 7
2181 2059 1959 2040 8
2143 2069 1967 2040 8
1913 2079 1999 2079 9
2132 2080 1923 2057 10
2212 2071 1847 2022 10
1919 2052 1948 2048 11
1995 2047 2178 2059 11
2197 2048 2351 2126 12
1975 2053 2236 2073 12
1927 2046 2021 2054 13
2211 2055 1952 2030 14
2095 2076 1936 2020 14
1942 2101 1996 2058 15
2212 2144 2070 2119 15
2170 2112 2197 2157 16
1947 2114 2190 2127 16
2042 2041 2179 2045 17
2149 2028 2188 2062 18
1914 2019 2080 2010 18
1931 1990 1865 1963 19
2140 2004 1805 1982 20
1974 2014 1889 1971 20
1877 2004 2074 2055 21
2164 2034 2041 2032 22
2079 2035 1924 2015 23
1934 2081 1929 2058 24
2130 2068 1999 2075 24
2172 2076 2078 2060 25
1913 2060 2039 2062 26
2045 2060 2101 2060 27
2194 2057 2082 2067 28
1964 2053 2109 2053 28
1942 2034 2054 2004 29
2155 2030 1906 1997 30
2011 2038 1918 2043 31
1960 2073 2100 2061 32
2177 2079 2234 2078 32
2200 2129 2228 2116 33
1927 2104 2059 2074 34
2113 2108 1996 2119 35
2224 2118 2050 2126 36
1995 2125 2123 2160 36
2066 2090 1970 2048 37
2222 2053 1988 2013 38
1974 2053 1987 2008 39
1951 2056 2150 2102 40
2241 2093 2165 2129 41
2108 2068 2001 2053 42
1959 2066 1954 1992 42
2166 2072 2098 2046 43
2153 2108 2286 2158 44
1889 2080 1984 2080 45
2059 2064 1808 2023 46
2172 2060 2041 2085 47
1891 2046 2258 2066 48
1957 2039 2179 2027 49
2204 2061 1962 2010 49
1991 2063 1898 2015 50
1921 2041 2050 2081 51
2167 2038 2115 2088 52
2050 2024 1958 1998 53
1846 2017 1834 1951 54
2126 2047 1912 1999 54
2119 2035 2124 2059 55
1848 2029 2155 2074 56
2057 2048 1943 2036 57
2217 2077 1929 2029 58
1979 2104 2134 2103 59
2038 2095 2093 2096 59
2284 2112 1909 2080 60
2061 2099 2031 2059 61
1927 2050 2310 2083 62
2181 2033 2181 2014 62
2113 2058 1930 2039 63
1922 2088 1954 2072 64
2176 2103 2217 2119 65
2218 2095 2256 2132 66
1903 2070 1983 2029 66
2050 2057 1892 2028 67
2233 2061 1997 2034 68
1949 2048 2028 2015 69
1950 2048 2136 2047 69
2186 2038 2154 2072 70
2018 2035 2109 2027 71
1871 2013 1950 2014 72
2136 2012 1895 1965 72
2087 2021 1831 1948 73
1845 2038 1827 1988 74
2067 2041 2177 2110 75
2174 2047 2213 2110 75
1899 2039 2092 2048 76
2004 2020 1699 1933 77
2131 1976 1898 1993 77
1857 1969 2105 1969 78
1880 2001 2029 2020 79
2127 2004 1774 1967 79
2040 2051 1978 1997 80
1984 2101 2354 2170 81
2154 2100 2288 2099 81
2106 2036 1965 2007 82
1837 1948 1686 1884 83
1979 1996 2076 2064 83
2153 2072 2220 2105 84
1936 2055 1997 2059 85
1974 2032 1992 2034 85
2234 2080 2157 2063 86
2032 2098 2197 2136 87
2006 2104 1846 2023 87
2263 2082 1845 2022 88
2176 2108 2153 2143 89
1959 2128 2135 2106 89
2218 2128 2204 2175 90
2236 2119 2118 2151 90
1916 2078 1924 2081 91
2044 2064 1942 2068 91
2244 2083 2034 2048 92
1944 2063 2112 2008 93
1986 2059 2239 2002 93
2222 2041 2210 2106 94
1988 2034 2068 2060 94
1874 2028 2070 2068 95
2152 2030 1835 2000 95
2090 2025 1872 1986 96
1878 2030 2238 2111 97
2111 2046 2222 2095 97
2193 2049 1952 2019 98
1873 2048 1658 1947 98
2095 2089 1957 2036 99
2252 2089 2337 2178 99
2004 2092 2188 2104 100
1987 2080 1878 2051 100
2203 2060 1876 2019 101
2023 2080 1910 1996 101
1920 2065 2070 2043 102
2180 2069 2167 2010 102
2132 2077 2383 2168 103
1908 2080 2116 2140 103
2135 2105 2031 2128 104
2240 2110 2027 2071 104
1948 2097 2320 2108 104
2061 2110 2118 2081 105
2201 2067 1768 2056 105
2019 2081 2039 1997 106
1923 2046 2344 2096 106
2195 2046 2237 2069 107
2046 2017 1848 1982 107
1807 1983 1622 1919 108
2102 2016 2085 2042 108
2121 2032 2204 2082 108
1876 2024 1938 2056 109
2002 1969 1657 1907 109
2171 2035 2017 1944 110
1900 2038 2114 2070 110
1971 2066 2108 2091 110
2228 2041 1860 2018 111
1986 2025 1859 1985 111
1885 2066 2448 2146 111
2222 2086 2106 2096 112
2117 2079 1975 2026 112
1899 2076 2130 2068 112
2133 2072 2217 2156 113
2199 2080 2209 2143 113
1906 2049 1857 1997 114
1994 2038 1898 1999 114
2224 2065 2123 2059 114
1957 2061 2207 2102 115
1977 2052 2105 2060 115
2248 2039 1754 1968 115
2028 2053 1839 1981 116
1887 2058 2044 2051 116
2193 2072 2140 2144 116
2136 2052 2092 2108 117
1909 2081 2089 2069 117
2122 2074 1758 2016 117
2169 2047 1825 2045 117
1952 2066 2212 2127 118
2001 2032 2366 2090 118
2219 2086 2608 2216 118
1992 2070 2141 2080 118
1941 2047 1936 2016 119
2243 2062 1925 1997 119
2038 2066 1926 2052 119
1888 2051 1876 2017 120
2192 2056 1864 2013 120
2085 2040 1912 2008 120
1899 2065 2299 2095 120
2124 2043 1860 1940 120
2244 2070 2076 2032 121
1955 2081 2159 2140 121
2009 2072 2157 2108 121
2222 2085 2125 2095 121
1997 2061 1962 2028 122
1905 2029 1972 2044 122
2183 2046 2124 2062 122
2039 2045 2053 2023 122
1884 2047 1843 1988 122
2141 2038 2067 2096 123
2176 2085 2392 2198 123
1900 2081 2174 2068 123
2054 2065 1962 2034 123
2240 2066 1923 2087 123
1953 2066 2137 2045 124
1991 2076 2168 2112 124
2214 2034 1858 1950 124
2041 2074 2078 2065 124
1893 2048 1986 2044 124
2109 2013 1802 1983 125
2092 2061 2054 1983 125
1899 2054 2021 2084 125
2148 2109 2380 2180 125
2220 2032 1766 1967 125
1861 2011 1865 2013 125
2018 2074 2460 2060 125
2219 2089 2244 2106 126
1954 2051 1856 1983 126
1983 2063 2030 2172 126
2193 2067 2086 2070 126
2080 2100 2223 2161 126
1945 2089 2076 2027 126
2194 2073 1984 2036 126
2135 2104 2167 2118 127
1877 2032 2019 2023 127
2084 2034 1932 1990 127
2198 2068 2003 2048 127
1903 2048 1973 2030 127
1978 2022 1807 1977 127
2205 2014 1859 1982 127
1956 2040 2165 2045 127
1936 2043 2057 2023 127
2203 2069 2218 2072 128
2093 2076 2056 2073 128
1876 2061 2248 2111 128
2159 2060 1990 2035 128
2160 2079 1891 2017 128
1871 2067 2139 2118 128
2090 2061 2105 2039 128
2210 2069 2125 2081 128
1946 2073 2059 2039 128
1990 2071 2000 2071 128
2228 2056 1903 2077 128
2010 2060 2092 2050 128
1900 2042 2091 2041 128
2199 2061 2202 2079 128
2084 2049 1989 2017 128
1866 2040 1829 2004 128
2149 2061 1989 2041 128
2184 2069 2208 2119 128
1877 2048 2075 2053 128
2048 2058 2068 2070 128
2237 2069 2045 2098 128
1953 2057 1984 2041 128
1991 2073 2143 2101 128
2241 2070 2043 2046 127
2028 2063 1964 2067 127
1902 2067 1994 2013 127
2195 2064 2146 2035 127
2115 2070 2086 2064 127
1880 2064 1965 2046 127
2107 2051 2064 2053 127
2196 2055 2120 2053 127
1907 2063 2162 2075 127
2030 2061 2013 2053 127
2221 2055 1952 2035 127
1966 2062 2063 2057 127
1948 2059 2015 2044 127
2197 2048 1962 2031 127
2066 2062 2034 2048 127
1903 2047 2008 2024 126
2154 2052 1910 2005 126
2153 2073 2092 2118 126
1902 2066 2068 2063 126
2095 2068 2140 2108 126
2209 2076 2152 2068 126
1944 2067 2107 2063 126
1993 2064 2163 2078 126
2216 2063 2063 2061 126
1983 2046 1966 2023 125
1937 2070 2025 2060 125
2190 2059 2005 2065 125
2076 2051 1985 2028 125
1895 2060 2066 2043 125
2128 2060 2049 2047 124
2153 2061 2030 2040 124
1901 2075 2056 2073 124
2067 2058 2023 2032 124
2229 2096 2111 2112 124
1960 2074 2030 2068 123
1982 2062 2069 2077 123
2232 2063 2052 2052 123
2026 2068 2046 2049 123
1890 2049 2043 2032 122
2191 2057 2014 2026 122
2099 2056 2079 2058 122
1857 2047 2002 2022 122
2130 2059 2056 2079 121
2179 2056 2040 2056 121
1904 2060 2072 2073 121
2035 2045 1933 2014 120
2212 2079 2066 2084 120
1947 2056 2085 2067 120
1964 2054 2141 2052 119
2231 2068 2108 2060 119
2029 2059 2039 2037 119
1883 2052 2051 2065 118
2180 2050 2052 2047 118
2116 2048 1989 2021 118
1861 2054 2021 2052 117
2108 2050 1997 2047 117
2188 2059 2030 2044 116
1874 2050 2010 2029 116
2044 2048 1962 1994 115
2212 2043 1983 2011 115
1995 2068 2130 2119 114
1929 2053 2099 2067 114
2206 2068 2068 2091 113
2054 2052 1985 2033 113
1871 2042 2029 2003 112
2159 2062 2162 2091 112
2157 2071 2091 2060 111
1905 2074 2000 2058 111
2097 2071 2003 2059 110
2229 2080 2047 2056 110
1935 2078 2103 2080 109
2016 2069 2086 2069 109
2246 2068 2062 2063 108
2014 2074 2053 2060 108
1920 2064 2047 2066 107
2225 2071 2028 2060 107
2091 2075 2016 2080 106
1895 2063 1991 2036 106
2142 2052 2011 2029 105
2179 2055 2097 2067 105
1900 2054 2164 2103 104
2055 2054 2090 2068 104
2224 2050 2058 2049 103
1929 2037 1944 2006 102
1967 2060 1966 2026 102
2230 2060 2031 2045 101
2045 2067 2126 2099 101
1906 2053 2094 2072 100
2171 2049 2056 2044 100
2087 2040 1978 2016 99
1879 2040 1979 2022 98
2079 2035 2036 2029 98
2168 2039 2032 2041 97
1886 2034 1994 2017 97
2008 2037 1968 2029 96
2221 2056 2026 2037 96
1949 2042 2026 2036 95
1944 2044 2033 2036 94
2211 2056 1979 2022 94
2069 2072 2032 2071 93
1902 2055 2184 2139 93
2186 2073 2150 2117 92
2144 2074 2067 2070 91
1892 2066 1944 2016 91
2093 2070 2049 2044 90
2229 2090 2202 2105 89
1912 2077 2187 2103 89
2012 2063 2080 2063 88
2252 2080 1990 2039 88
1984 2066 1999 2045 87
1922 2062 2018 2050 87
2240 2067 2024 2042 86
2079 2073 2022 2052 85
1893 2062 2020 2048 85
2168 2059 1988 2034 84
2141 2050 2027 2053 84
1872 2053 2053 2051 83
2049 2050 2052 2056 83
2216 2058 1959 2051 82
1941 2068 1958 2035 82
1985 2060 1976 2033 81
2232 2049 2082 2052 80
2004 2059 2208 2113 80
1920 2068 2238 2112 79
2221 2077 2172 2078 78
2111 2078 2049 2045 78
1876 2049 1970 2024 77
2139 2043 2002 2040 77
2152 2044 2036 2034 76
1899 2046 2018 2032 75
2033 2041 2010 2030 75
2210 2051 1992 2031 74
1928 2032 1983 2022 74
1935 2027 2006 2017 73
2195 2020 1987 2004 73
1998 2040 1991 2009 72
1871 2023 1992 2011 72
2140 2027 1918 2011 71
2078 2037 1961 2024 70
1866 2040 1872 1980 70
2082 2037 1938 2005 69
2190 2068 2106 2082 68
1913 2070 2352 2148 68
2028 2049 2335 2134 67
2238 2072 2170 2074 66
1992 2065 1988 2040 66
1952 2061 2004 2058 65
2218 2063 2025 2054 65
2067 2066 1995 2048 64
1892 2061 1985 2044 63
2187 2076 2026 2064 63
2157 2078 2037 2062 62
1919 2069 2011 2060 62
2097 2053 2010 2047 61
2199 2048 1930 2034 61
1921 2046 1932 2029 60
1997 2045 2020 2059 60
2214 2049 2098 2051 59
1985 2043 2097 2041 59
1901 2038 2121 2044 58
2189 2043 2124 2055 57
2089 2062 2120 2061 57
1903 2068 2042 2052 56
2169 2086 2021 2082 56
2184 2087 2063 2080 55
1915 2084 2079 2081 55
2062 2066 2030 2058 54
2208 2072 2012 2062 54
1945 2067 1982 2059 53
2000 2070 2046 2056 52
2217 2058 2044 2041 52
2053 2084 2039 2068 51
1910 2062 2017 2043 51
2190 2065 2005 2072 50
2140 2067 2068 2056 50
1927 2065 2121 2090 49
2131 2057 2041 2061 48
2173 2057 2001 2056 48
1883 2057 2032 2042 47
2010 2049 2122 2068 47
2199 2061 2230 2102 46
1937 2049 2109 2040 45
1953 2062 2031 2063 45
2190 2062 1999 2060 44
2046 2066 2027 2055 44
1915 2056 2044 2036 43
2153 2047 1974 2042 43
2133 2051 2031 2046 42
1887 2036 2015 2047 41
2109 2057 2001 2043 41
2191 2055 1988 2042 40
1930 2059 1995 2056 40
2007 2068 2045 2060 39
2202 2041 2074 2052 39
1956 2047 2057 2030 38
1946 2053 1985 2036 38
2208 2064 2015 2068 37
2081 2060 2066 2068 37
1894 2056 2108 2069 36
2138 2057 2083 2036 36
2139 2059 2070 2053 36
1882 2049 2088 2047 35
2072 2062 2087 2052 35
2208 2065 2032 2050 34
1952 2074 2015 2058 34
2011 2060 2039 2064 33
2215 2059 2039 2059 33
2006 2057 2032 2056 33
1914 2037 2024 2039 32
2215 2079 2050 2061 32
2092 2061 2038 2057 31
1909 2067 2041 2069 31
2144 2064 2046 2074 31
2172 2067 2035 2065 30
1942 2087 2055 2072 30
2047 2052 2025 2044 29
2246 2080 2068 2084 29
1965 2052 2047 2048 29
1975 2062 2054 2057 28
2191 2061 2055 2053 28
2013 2056 2052 2047 27
1867 2034 2029 2028 27
2174 2073 2051 2062 27
2108 2062 2031 2056 26
1895 2056 2027 2053 26
2101 2060 2062 2058 25
2174 2054 2066 2055 25
1940 2077 2078 2066 25
2032 2074 2067 2064 24
2224 2075 2049 2066 24
