-151 20 1 6 0
-6 14 -40 -25 0
188 21 -11 2 0
-99 25 0 -10 0
-91 23 6 11 0
141 -22 -44 -28 0
-18 -1 -24 -10 0
-125 36 2 4 0
144 7 4 30 0
78 2 -22 1 0
-151 13 -1 12 0
54 18 12 12 0
142 7 -1 -8 0
-118 8 -10 15 0
-21 30 7 9 0
166 9 -7 4 0
-55 25 -1 -5 0
-120 -20 5 -19 0
172 68 6 -7 0
14 15 3 9 0
-130 19 -7 29 0
99 6 -24 15 0
80 6 0 -6 0
-134 22 15 2 0
23 0 -21 -17 0
160 31 -9 5 0
-106 12 18 23 0
-43 13 -6 6 0
155 5 1 12 0
-46 8 -13 -6 0
-112 3 17 1 0
139 7 -28 6 0
56 18 -2 20 0
-139 17 4 41 0
60 -24 -45 -65 0
102 -2 2 1 0
-124 48 -1 8 0
36 38 19 27 0
183 53 21 34 0
-96 9 -19 -9 0
-56 15 -25 3 0
185 64 33 39 0
-2 34 22 31 0
-132 2 2 -27 0
135 24 -9 -8 0
54 14 5 24 0
-164 -13 -22 -11 0
33 -16 -28 -23 0
87 -25 -35 -22 0
-171 -40 -58 -64 0
-59 -25 -59 -44 0
144 11 -29 -35 0
-89 -2 -16 8 0
-107 -19 -20 -17 0
139 -4 -19 0 0
-1 20 1 1 0
-114 24 -32 -22 0
127 14 7 27 0
74 10 -6 21 0
-142 14 4 20 0
51 23 -10 9 0
146 40 18 33 0
-106 8 1 3 0
-21 20 0 8 0
160 17 12 13 0
-26 36 27 17 0
-86 4 -3 11 0
164 28 -5 1 0
40 25 14 -1 0
-104 45 80 79 0
120 36 7 32 0
115 20 4 24 0
-125 23 -14 13 0
30 23 2 7 0
152 18 3 7 0
-98 14 20 19 0
-20 54 25 19 0
148 19 26 28 0
-25 10 -8 -3 0
-128 -21 -11 -15 0
123 2 -40 -20 0
30 12 9 19 0
-145 2 -8 -13 0
52 -21 -41 -58 0
99 16 -11 2 0
-140 5 -2 22 0
-4 -2 -22 -21 0
137 2 13 10 0
-102 -4 -68 -64 0
-72 24 5 23 0
150 -4 -12 11 0
-21 6 -18 -2 0
-152 -14 -34 -50 0
112 -2 -34 -30 0
59 1 -8 5 0
-144 15 5 24 0
42 9 -16 -11 0
148 32 14 22 0
-110 23 7 6 0
10 54 41 49 0
189 47 21 24 0
-24 52 18 28 0
-72 32 22 52 0
215 79 67 59 0
68 69 33 49 0
-75 66 58 67 0
138 52 34 28 0
131 56 47 63 0
-99 55 58 58 0
72 44 30 32 0
149 25 0 10 0
-117 8 -6 -6 0
-78 -24 -31 -27 0
122 -33 -62 -61 0
-65 1 4 18 0
-129 -2 -39 -31 0
136 11 -7 20 0
16 3 -28 -15 0
-170 -6 -12 -4 0
55 -28 -28 -33 0
50 -44 -46 -40 0
-150 -2 -22 -20 0
-16 -5 -17 -32 0
140 18 8 7 0
-102 -1 -62 -46 0
-53 21 13 29 0
140 7 -25 -7 0
-51 -22 -33 -32 0
-155 -26 -29 -25 0
95 -11 -34 -20 0
28 -12 -39 -28 0
-167 -32 -39 -21 0
16 -43 -51 -52 0
58 -45 -58 -58 0
-204 -68 -71 -71 0
-106 -83 -113 -101 0
78 -66 -86 -70 0
-162 -67 -65 -79 0
-149 -69 -96 -80 0
109 -26 -47 -16 0
-36 -16 -45 -31 0
-145 -14 -32 -24 0
105 4 -8 -3 0
55 -10 -13 -9 0
-150 6 -11 -1 0
49 13 4 13 0
143 20 0 14 0
-96 16 -6 4 0
-25 14 -2 5 0
177 24 22 30 0
-44 24 6 13 0
-102 12 -2 6 0
172 37 21 22 0
34 27 16 10 0
-141 2 7 13 0
124 18 7 17 0
72 -7 -11 8 0
-143 9 4 11 0
7 -8 -6 -12 0
132 5 1 7 0
-105 10 -10 2 0
-48 4 -14 7 0
150 4 1 25 0
11 55 36 45 0
-85 40 23 32 0
166 49 34 30 0
76 43 22 32 0
-129 22 21 32 0
82 15 -2 -6 0
82 -19 -16 -3 0
-180 -44 -68 -55 0
-50 -36 -67 -27 0
116 -17 -39 -23 0
-70 25 29 39 0
-51 34 35 47 0
214 69 57 47 0
51 77 90 81 0
-58 74 33 37 0
172 50 55 62 0
126 70 56 61 0
-93 57 44 40 0
98 57 34 48 0
177 60 48 63 0
-64 66 42 48 0
23 57 51 53 0
224 70 83 76 0
0 79 55 80 0
-47 53 34 41 0
190 41 40 51 0
32 25 -2 4 0
-106 24 29 31 0
122 32 55 70 0
78 0 -28 -20 0
-177 -26 -55 -34 0
-9 -30 -66 -45 0
106 -18 -31 -9 0
-142 -20 -21 0 0
-64 -20 -24 -17 0
143 -7 -42 -32 0
-62 -4 -33 -32 0
-127 -1 -22 -4 0
140 -8 -34 -4 0
23 5 -23 -2 0
-151 6 -23 -17 0
93 22 12 18 0
128 41 35 64 0
-112 27 4 2 0
34 24 31 64 0
148 15 3 19 0
-88 20 4 27 0
-66 11 -11 -6 0
162 22 9 5 0
23 45 42 53 0
-104 24 22 16 0
168 55 64 82 0
80 35 20 27 0
-140 3 -7 13 0
41 -6 -19 -7 0
117 6 0 -2 0
-120 20 7 20 0
0 21 13 8 0
189 48 33 40 0
-44 42 5 13 0
-41 50 27 34 0
222 72 52 69 0
58 76 60 67 0
-112 35 27 33 0
104 -11 -18 -30 0
14 -46 -38 -23 0
-257 -89 -84 -63 0
-82 -115 -151 -132 0
22 -95 -123 -157 0
-220 -79 -87 -75 0
-93 -46 -62 -29 0
132 -17 -33 -6 0
-65 1 -19 -5 0
-97 8 9 11 0
154 15 -3 0 0
20 3 13 29 0
-153 -18 -18 -7 0
77 -12 -28 -16 0
92 3 -34 -10 0
-154 1 5 40 0
33 13 -1 5 0
150 31 -9 18 0
-112 14 13 24 0
-58 9 -29 6 0
164 15 -27 -8 0
-41 6 -13 1 0
-129 7 -18 -3 0
156 33 7 18 0
47 10 -10 -7 0
-144 8 -3 10 0
80 9 -4 6 0
116 21 9 13 0
-136 0 -8 -3 0
22 36 15 30 0
190 33 25 26 0
-66 36 14 15 0
-44 37 -3 17 0
188 52 36 54 0
46 69 52 72 0
-72 72 39 52 0
203 85 64 75 0
140 79 56 79 0
-98 55 27 26 0
90 42 21 31 0
118 9 -16 -15 0
-164 -27 -47 -46 0
-89 -64 -81 -72 0
53 -95 -97 -75 0
-154 -68 -101 -84 0
-186 -86 -96 -84 0
70 -72 -78 -70 0
-50 -29 -48 -49 0
-210 -49 -67 -60 0
66 -31 -62 -36 0
54 -4 -32 -27 0
-186 -22 -32 -13 0
13 -12 -22 -10 0
133 -5 -9 6 0
-122 5 -22 -18 0
-40 19 -27 -19 0
170 12 5 12 0
-35 23 8 18 0
-91 33 26 28 0
156 27 7 37 0
54 29 12 25 0
-135 21 -1 1 0
93 17 6 12 0
135 37 26 28 0
-139 2 0 10 0
18 15 14 3 0
182 31 7 35 0
-96 19 15 25 0
-50 11 7 30 0
172 6 -4 28 0
-11 38 9 18 0
-108 35 7 8 0
148 32 15 6 0
67 10 0 8 0
-102 63 73 74 0
64 9 -8 5 0
132 13 -25 2 0
-147 -7 -33 -7 0
-35 -2 -35 -9 0
152 4 -4 8 0
-101 -18 -20 -15 0
-90 -4 -3 6 0
143 -4 -3 10 0
-7 5 0 0 0
-148 0 -10 -2 0
117 -4 -5 -14 0
71 4 -19 -9 0
-157 11 -2 -2 0
45 8 21 32 0
161 33 9 29 0
-124 22 0 12 0
-33 20 0 18 0
181 18 2 7 0
-63 14 8 9 0
-102 29 1 9 0
167 28 8 17 0
28 17 8 14 0
-148 12 3 5 0
111 17 2 10 0
83 -1 -9 2 0
-113 23 -4 -3 0
25 6 20 31 0
156 17 0 -5 0
-121 -5 -16 -15 0
-71 -12 -48 -41 0
167 8 -2 14 0
-24 27 -19 11 0
-93 32 32 47 0
153 14 18 48 0
64 38 7 16 0
-135 21 14 33 0
91 2 3 17 0
117 16 5 4 0
-145 14 10 10 0
-9 -1 3 13 0
181 32 24 18 0
-103 8 -13 3 0
-79 13 -4 7 0
168 4 -1 6 0
0 25 6 -4 0
-131 23 11 32 0
130 16 -13 7 0
71 12 0 22 0
-167 -3 -25 -16 0
44 5 -12 -1 0
131 10 -3 4 0
-138 2 -2 4 0
-43 -11 -12 -7 0
155 4 -8 -16 0
-72 8 -10 -5 0
-88 19 -40 -27 0
164 16 4 41 0
-15 -8 -30 -16 0
-140 30 0 14 0
100 -8 -9 -1 0
84 10 -14 -21 0
-150 13 -9 -1 0
34 16 13 20 0
144 12 0 4 0
-127 -6 -19 -10 0
-62 -5 -21 -8 0
175 13 -2 1 0
-46 15 19 25 0
-111 13 -4 7 0
148 16 -1 8 0
37 17 -8 11 0
-162 2 -14 -7 0
85 -2 -1 -7 0
116 15 3 16 0
-151 11 -15 -6 0
7 4 -6 20 0
156 1 -17 -7 0
-106 10 -9 -3 0
-69 12 -10 0 0
173 10 -3 1 0
-20 20 14 15 0
-134 8 -23 -15 0
123 -3 -3 11 0
80 41 27 42 0
-140 25 2 5 0
95 41 64 75 0
146 25 5 28 0
-133 12 -8 4 0
-18 7 -8 5 0
164 5 3 9 0
-52 34 7 14 0
-83 9 12 20 0
167 12 0 6 0
0 5 -11 2 0
-161 -22 -43 -49 0
110 2 -18 -3 0
78 5 -14 0 0
-144 3 -20 1 0
39 0 -26 -14 0
153 26 16 19 0
-130 9 3 15 0
-30 17 4 10 0
159 0 -9 -2 0
-36 28 5 19 0
-114 15 -12 -3 0
165 16 0 6 0
40 16 16 18 0
-159 10 -8 -8 0
105 19 -2 4 0
102 12 0 -7 0
-146 15 -9 -4 0
4 -1 -11 5 0
165 17 9 8 0
-118 1 -7 6 0
-65 13 1 7 0
170 8 -5 8 0
-34 14 -13 -4 0
-123 12 3 20 0
140 -3 -7 5 0
51 11 -4 7 0
-168 5 -9 -5 0
80 14 12 31 0
121 9 -6 2 0
-129 27 -2 8 0
-9 3 -1 10 0
172 26 32 31 0
-96 9 -36 -20 0
-88 12 -3 17 0
167 8 -11 -2 0
1 17 4 0 0
-146 5 2 18 0
133 16 -1 14 0
72 19 -4 -1 0
-163 16 -17 -8 0
48 2 -12 2 0
161 21 -9 9 0
-130 12 -9 5 0
-42 -2 -34 -28 0
214 49 6 23 0
-79 8 -10 -10 0
-99 17 7 12 0
164 15 0 6 0
1 4 -5 -1 0
-151 23 2 0 0
110 10 2 0 0
95 11 -12 -4 0
-155 4 -9 -3 0
19 3 6 4 0
152 14 -2 -8 0
-132 10 4 14 0
-65 1 -38 -15 0
160 6 -9 7 0
-40 17 7 20 0
-132 -3 -9 -26 0
148 10 2 13 0
38 15 -14 -12 0
-171 -1 8 22 0
95 14 9 11 0
119 20 -8 -5 0
-147 4 -16 -2 0
4 9 -17 -23 0
158 6 -28 2 0
-85 24 0 16 0
-84 8 -24 -1 0
177 14 -16 -8 0
-26 5 -2 13 0
-140 -3 -7 11 0
144 24 -12 1 0
67 11 6 14 0
-158 12 -1 4 0
64 4 -11 1 0
136 12 11 12 0
-142 9 -2 12 0
-30 6 -9 -10 0
178 30 -20 -4 0
-90 1 -12 -10 0
-103 6 10 20 0
163 2 5 19 0
21 23 28 48 0
-138 19 -10 -1 0
130 20 -21 -7 0
84 23 1 11 0
-149 16 1 5 0
26 -12 -9 -8 0
162 25 -8 8 0
-129 10 -16 2 0
-39 11 -8 6 0
163 4 -7 -7 0
-67 6 -10 -15 0
-117 0 27 32 0
157 11 -6 6 0
24 6 -1 7 0
-150 6 -7 11 0
116 20 13 23 0
109 7 -7 10 0
-145 0 -29 -21 0
26 19 -5 2 0
165 15 -3 7 0
-105 14 -6 3 0
-68 2 1 7 0
186 8 15 19 0
-25 10 -3 9 0
-124 24 5 13 0
153 26 31 36 0
47 4 -11 2 0
-176 1 3 7 0
75 21 -21 -7 0
124 6 -35 -9 0
-145 9 -23 -2 0
-33 -6 -28 -12 0
166 19 -1 -1 0
-91 4 7 21 0
-90 3 -12 -6 0
171 17 -5 2 0
-16 16 -7 -29 0
-147 13 46 47 0
144 16 -23 -1 0
72 15 0 17 0
-166 3 -15 -6 0
50 6 6 5 0
150 26 7 18 0
-133 9 0 3 0
-26 16 2 4 0
182 13 8 14 0
-62 15 4 8 0
-109 8 -4 1 0
165 4 -9 -8 0
15 13 -4 -1 0
-146 9 -14 -3 0
99 -13 -33 -41 0
110 32 58 72 0
-156 4 -27 -15 0
27 7 -6 16 0
174 24 -5 8 0
-117 6 0 1 0
-72 -6 -8 3 0
210 42 4 20 0
-32 7 1 7 0
-129 5 -6 2 0
125 1 -15 -6 0
55 28 9 15 0
-159 16 -4 -10 0
93 13 -7 2 0
128 6 5 10 0
-160 4 5 6 0
-6 2 -18 -8 0
154 10 -16 0 0
-98 19 -27 -11 0
-89 19 4 17 0
146 -3 -6 4 0
-17 9 -6 9 0
-128 13 1 12 0
128 4 3 10 0
80 24 10 17 0
-175 -6 0 -7 0
47 -1 -17 0 0
134 14 2 13 0
-129 22 -7 8 0
-16 10 -11 -13 0
173 23 19 21 0
-75 12 -8 10 0
-98 8 -11 15 0
161 11 -3 17 0
1 15 -10 -9 0
-156 8 7 32 0
125 15 -7 4 0
89 12 13 8 0
-134 31 -30 -6 0
20 -12 -17 -2 0
168 31 0 16 0
-131 8 -18 -13 0
-41 2 16 2 0
178 9 0 6 0
-55 16 3 14 0
-118 4 2 1 0
157 9 1 10 0
28 16 -14 -3 0
-153 11 2 6 0
101 16 2 16 0
117 16 9 10 0
-155 1 -7 3 0
-11 -21 -28 -19 0
149 -10 -9 -11 0
-111 0 -1 15 0
-79 -13 -13 -23 0
177 28 -12 14 0
-29 15 -2 12 0
-138 0 5 29 0
141 13 -3 9 0
46 17 0 -7 0
-165 13 10 28 0
79 9 6 13 0
127 12 -6 8 0
-142 17 -6 1 0
-24 4 -17 -6 0
162 0 -9 -4 0
-91 5 -3 4 0
-101 -7 -13 -9 0
171 8 5 12 0
-9 11 -4 3 0
-146 13 12 23 0
127 16 -4 3 0
75 7 9 11 0
-151 19 -13 24 0
48 12 4 11 0
172 31 8 36 0
-129 -8 -17 -11 0
-24 23 16 29 0
183 30 13 31 0
-58 25 -9 -3 0
-109 5 5 13 0
203 46 17 24 0
19 11 -15 -1 0
-139 24 2 11 0
110 11 -9 0 0
98 5 0 3 0
-158 7 -5 -22 0
36 11 47 37 0
159 10 -36 -35 0
-116 9 -3 5 0
-53 20 7 28 0
170 12 0 2 0
-37 14 8 9 0
-106 28 10 19 0
140 8 -5 -3 0
40 10 -7 -2 0
-154 5 -5 0 0
50 -15 -31 -19 0
139 31 6 14 0
-144 16 -2 8 0
-16 10 -8 4 0
178 26 -12 -9 0
-121 -11 -28 -2 0
-54 40 3 26 0
170 12 -9 14 0
-24 17 0 10 0
-132 5 -9 6 0
128 6 -5 15 0
56 3 -13 1 0
-153 0 -12 0 0
47 -4 -18 -14 0
127 14 -2 -1 0
-126 15 -34 -28 0
-20 8 -6 8 0
172 8 -14 2 0
-65 24 3 10 0
-104 9 2 3 0
166 18 -1 9 0
8 16 -14 -7 0
-128 24 2 10 0
105 4 -11 -5 0
96 26 -4 15 0
-164 1 10 17 0
24 -2 2 17 0
162 24 -17 4 0
-109 15 -14 -5 0
-32 19 -8 5 0
179 12 -1 14 0
-55 10 -19 -6 0
-132 4 -11 -8 0
153 4 -6 9 0
22 12 -5 -4 0
-166 7 -3 6 0
87 6 7 7 0
98 7 -17 4 0
-166 -1 -17 -15 0
-1 -5 -5 -3 0
175 27 -11 -6 0
-129 -6 -6 4 0
-49 19 -6 1 0
163 -4 -3 -5 0
-17 22 4 6 0
-131 12 -15 -7 0
141 16 -7 -3 0
53 9 -7 7 0
-170 -1 -12 2 0
65 5 0 4 0
127 13 -2 13 0
-120 17 -2 10 0
-26 -8 -15 -5 0
167 11 -14 0 0
-84 9 -6 -5 0
-110 -4 -22 -6 0
170 9 -6 -3 0
5 27 24 42 0
-149 8 -3 7 0
132 12 4 17 0
83 25 -29 0 0
-159 13 3 7 0
57 10 -6 6 0
153 20 6 16 0
-117 16 9 18 0
-47 -2 -12 5 0
177 8 -10 8 0
-65 7 -7 8 0
-110 9 -1 5 0
174 13 15 23 0
26 10 -13 -10 0
-166 13 3 -3 0
116 28 4 11 0
116 24 47 40 0
-148 12 11 24 0
29 19 -13 -16 0
169 18 9 21 0
-122 4 19 33 0
-54 -2 -18 5 0
180 23 -8 6 0
-36 22 6 14 0
-145 10 -14 -4 0
152 10 -4 4 0
43 9 -4 9 0
-162 6 -6 -1 0
80 4 -3 9 0
125 10 0 8 0
-142 19 -5 2 0
-10 8 0 1 0
180 28 22 19 0
-108 2 -11 0 0
-86 15 -5 13 0
175 14 -10 17 0
-21 2 -5 -7 0
-151 3 -2 1 0
119 2 4 15 0
72 15 -2 13 0
-177 -6 -9 -6 0
66 10 -18 -19 0
152 22 -2 3 0
-142 13 0 0 0
-52 -17 -26 -10 0
181 20 2 8 0
-70 20 8 20 0
-103 15 -8 -2 0
150 -2 -3 -2 0
-11 -4 -18 0 0
-145 19 5 15 0
106 -4 -15 1 0
99 7 -6 2 0
-155 12 -4 3 0
25 -3 -6 5 0
154 6 -7 10 0
-120 15 -6 7 0
-54 12 -10 -2 0
172 12 -6 0 0
-46 10 -9 -1 0
-134 -6 -3 4 0
147 8 4 11 0
48 26 18 24 0
-155 14 -11 5 0
95 22 4 24 0
107 2 -25 -2 0
-134 23 2 16 0
-7 0 -15 -5 0
172 22 -23 -19 0
-91 26 17 27 0
-85 3 -23 -7 0
167 17 -2 12 0
-51 -5 -32 -18 0
-131 4 -6 -3 0
155 21 3 7 0
80 20 36 42 0
-168 -1 1 16 0
68 7 0 10 0
126 7 -11 -3 0
-132 21 1 1 0
-18 -9 7 9 0
147 -2 -8 10 0
-87 1 -33 -22 0
-100 1 15 11 0
168 6 -1 -4 0
3 18 -8 -3 0
-135 20 -4 15 0
117 9 -16 -3 0
86 11 -12 -2 0
-151 11 8 19 0
40 7 -21 -11 0
147 10 -3 -7 0
-145 2 11 17 0
-36 14 -13 10 0
169 9 -9 2 0
-57 14 -10 1 0
-99 34 4 9 0
135 -8 -6 -1 0
19 -1 0 12 0
-155 8 -6 -2 0
106 26 4 20 0
111 28 3 0 0
-149 5 46 48 0
16 7 -20 2 0
165 21 -3 21 0
-117 5 -27 -2 0
-75 5 -1 0 0
168 13 14 1 0
-46 9 -18 -8 0
-123 10 -1 11 0
117 -7 -16 -8 0
89 41 19 27 0
-160 6 0 6 0
58 -7 -10 3 0
144 15 12 21 0
-150 10 -9 0 0
-2 10 4 13 0
175 11 -18 -1 0
-90 21 -9 -4 0
-110 -2 -10 -8 0
173 23 -5 -6 0
-15 7 -33 -29 0
-135 19 -4 13 0
130 15 -15 8 0
53 5 -12 -6 0
-154 7 2 5 0
53 7 0 9 0
155 17 4 13 0
-134 -1 -7 7 0
-34 3 -1 2 0
180 19 2 5 0
-76 9 -16 -12 0
-84 19 -3 5 0
156 9 4 -7 0
0 7 -6 7 0
-152 0 -5 8 0
107 1 -11 4 0
102 30 -10 11 0
-161 1 -3 11 0
20 5 -17 -6 0
143 6 3 6 0
-113 16 22 17 0
-68 1 -7 -9 0
183 21 6 19 0
-40 23 -4 -9 0
-111 22 13 18 0
159 10 3 16 0
50 18 0 10 0
-149 10 0 7 0
90 17 6 15 0
129 19 -1 4 0
-147 14 -1 12 0
10 20 -6 2 0
161 5 -1 4 0
-88 12 -19 -6 0
-74 7 3 2 0
190 28 17 18 0
-14 8 10 17 0
-137 16 1 8 0
131 6 -1 13 0
61 7 -15 -6 0
-166 10 9 10 0
54 -1 -15 -12 0
140 22 15 33 0
-131 18 -21 -9 0
-21 5 -25 -6 0
172 13 4 13 0
-81 12 2 11 0
-101 4 -2 9 0
159 5 -9 8 0
-9 2 -3 16 0
-135 20 4 11 0
124 19 8 15 0
96 27 8 11 0
-164 9 -5 -7 0
35 1 -6 0 0
148 8 0 9 0
-108 25 0 11 0
-42 7 -8 7 0
176 16 -12 3 0
-62 11 -6 6 0
-125 0 -9 2 0
156 10 -15 0 0
32 19 -9 7 0
-175 -5 -21 -10 0
118 26 13 26 0
118 21 2 10 0
-144 22 -1 9 0
13 4 -9 9 0
148 -4 -22 -7 0
-124 -2 -17 -17 0
-83 -9 -23 -4 0
160 -7 -14 1 0
-41 0 -25 -15 0
-139 5 -7 7 0
125 -1 -11 2 0
65 17 -1 12 0
-165 5 -8 10 0
72 9 -8 1 0
107 1 -10 5 0
-134 40 4 12 1
-8 1 -1 6 1
191 38 25 32 1
-72 22 0 4 1
-88 13 -4 14 1
175 24 7 17 1
8 27 5 18 1
-146 1 0 -1 1
115 12 -4 -5 1
82 17 4 9 1
-153 22 5 7 1
52 16 1 10 1
165 34 14 40 1
-122 20 5 14 1
-33 2 -21 -27 1
183 23 -11 9 1
-66 -4 -10 -3 1
-104 6 -6 4 1
164 14 4 6 1
-8 -6 -13 -22 1
-142 18 15 52 1
132 25 20 34 1
115 23 8 20 1
-158 8 -7 2 1
16 -3 -3 -6 1
153 11 -9 5 1
-108 9 -7 0 1
-65 -5 -4 0 1
178 22 -12 -8 1
-34 23 7 24 1
-119 30 -6 3 1
151 14 0 13 1
52 18 9 19 1
-156 15 6 12 1
80 16 -4 2 2
126 27 -2 4 2
-170 0 -19 -20 2
-19 4 -22 -12 2
148 3 -20 -3 2
-93 23 -10 -3 2
-90 -5 -6 4 2
167 10 -10 -2 2
-42 -20 -28 -15 2
-127 12 -18 -4 2
112 -16 -26 -20 2
68 18 -1 6 2
-167 -14 -18 -10 2
57 -2 -32 -12 2
129 3 -20 -4 2
-152 -17 -20 -14 3
-36 -15 -38 -29 3
157 -7 -5 9 3
-74 12 -6 8 3
-96 10 -7 3 3
168 15 6 13 3
15 18 9 19 3
-149 1 -9 -2 3
135 35 28 40 3
113 30 21 38 3
-150 7 16 25 3
41 16 -4 2 3
161 19 -5 9 3
-128 12 -12 11 3
-54 -1 -19 1 3
176 8 -26 -6 3
-60 10 -1 0 3
-113 16 11 32 3
178 16 11 11 3
47 33 7 14 3
-171 0 -17 -21 3
88 -5 -9 -11 3
93 -4 -20 -20 3
-163 6 -4 3 3
15 2 -18 -9 3
151 5 -13 -9 3
-104 20 -2 11 3
-66 7 -2 5 3
172 20 -3 10 3
-41 3 -7 -2 3
-136 11 -6 2 3
124 -1 -12 4 3
69 23 10 18 3
-160 6 1 7 3
63 6 -3 7 3
147 32 7 17 3
-149 11 -2 0 3
-14 6 -12 -2 3
181 15 9 25 3
-89 8 -6 7 3
-101 9 -11 2 3
175 12 -16 -3 3
-9 12 -7 5 3
-133 19 -4 5 3
119 10 1 9 3
101 21 12 20 3
-144 15 14 22 3
50 13 -7 6 3
146 13 -5 7 3
-114 45 5 24 3
-30 22 34 37 3
192 31 -10 3 3
-34 25 19 43 3
-78 53 16 28 3
181 39 25 29 3
44 29 14 18 3
-165 7 -22 -12 3
79 -13 -6 2 3
99 16 -20 -5 3
-175 -13 -25 -17 3
36 17 -27 -5 3
185 36 16 32 3
-114 13 6 5 3
-63 5 -11 -8 3
183 13 -3 -6 3
-68 -9 -18 -12 3
-134 -7 -17 -19 3
168 19 20 33 3
42 15 -3 16 3
-190 -14 -28 -12 3
81 3 -7 -17 3
127 18 1 0 3
-153 4 -9 -9 3
16 10 6 11 3
192 30 15 28 3
-91 26 27 42 3
-76 18 -3 14 3
172 4 -16 -12 3
-33 12 -3 2 3
-163 -5 -32 -19 3
117 -18 -19 -6 3
71 5 -8 3 3
-188 -9 -19 -20 3
88 28 -7 6 3
138 10 -1 12 3
-139 16 -8 8 3
-30 8 -14 -2 3
183 16 7 17 3
-73 16 3 16 3
-99 13 -20 -12 3
168 9 -8 6 3
11 15 1 12 3
-158 5 -9 2 3
121 16 5 14 3
104 15 -3 9 3
-153 23 -1 12 3
31 -4 -17 -11 3
161 17 -4 -9 3
-115 14 -25 -2 3
-40 21 7 29 3
185 22 -7 11 3
-54 15 7 20 3
-128 4 -8 -1 3
146 7 -20 -2 3
31 13 -10 0 3
-176 -1 -8 0 3
120 15 0 8 3
120 15 6 11 3
-151 12 -6 3 3
13 5 -8 1 3
154 1 1 8 3
-104 14 0 5 3
-67 7 -6 -6 3
162 -3 -1 15 3
-29 14 -7 0 3
-146 7 -25 -23 3
128 -5 -7 16 3
63 17 -5 3 3
-160 12 -9 5 3
83 16 1 12 3
139 16 0 4 3
-147 8 8 3 3
-15 6 0 1 3
157 -1 -11 -2 3
-42 44 22 27 3
-90 10 2 8 3
180 28 14 20 3
-12 -6 -12 0 3
-148 5 -11 7 3
117 16 0 6 3
119 47 13 14 3
-163 -6 -18 -9 3
35 0 -25 -14 3
157 28 20 34 3
-134 4 -16 -2 3
-39 13 -11 8 3
188 28 -3 7 3
-64 17 2 12 3
-115 10 -12 6 3
177 24 -1 14 3
28 21 -1 19 3
-158 15 1 14 3
116 15 3 30 3
92 3 0 -2 3
-171 9 -10 -11 3
9 -4 -17 -26 3
134 -19 -19 -20 3
-90 38 0 13 3
-73 10 -5 -7 3
188 40 -5 -1 3
-39 1 -2 8 3
-140 -6 -14 1 3
157 17 6 20 3
69 30 13 18 3
-170 2 -7 -5 3
88 10 -4 9 3
120 10 -19 -1 3
-161 2 -12 -1 3
-3 8 -4 6 3
179 18 5 14 3
-104 7 -9 -4 3
-86 5 -5 4 3
186 31 2 9 3
2 37 13 7 3
-146 15 8 11 3
139 6 4 11 3
75 21 5 8 3
-165 10 -1 1 3
63 -5 -32 -8 3
109 -21 -57 -40 3
-151 -4 -19 -1 3
-30 11 0 4 3
200 32 36 27 3
-85 -4 -16 -10 3
-120 -6 -28 -26 3
149 -4 -9 -7 3
-4 -1 -15 -9 3
-179 -12 -22 -18 3
111 4 -16 -5 3
72 3 -15 -3 3
-165 12 -10 -1 3
49 4 -15 -9 3
152 5 -12 -3 3
-160 -6 4 16 3
-38 29 10 17 3
185 17 3 17 3
-49 32 1 19 3
-122 14 -5 8 3
164 20 7 23 3
41 22 0 12 3
-150 23 1 7 3
108 14 1 6 3
118 13 -7 8 3
-157 10 -5 6 3
13 6 -2 3 3
190 29 13 20 3
-88 17 1 10 3
-56 24 6 19 3
188 30 0 -2 3
-21 26 11 14 3
-120 28 12 20 4
154 13 -3 19 4
68 23 5 21 4
-157 19 -2 10 4
78 6 6 13 4
135 18 5 12 4
-131 20 0 12 4
-19 -6 -16 -15 4
168 8 -4 0 4
-111 -7 -17 -8 4
-100 2 -17 -3 4
162 3 -14 0 4
-6 15 -10 16 4
-143 13 -6 -1 4
126 11 -10 6 4
94 26 14 18 4
-174 0 -6 -4 4
44 -5 -10 0 4
141 5 -17 -3 4
-165 -7 -19 -10 4
-71 -22 -37 -30 4
110 -64 -68 -53 4
-164 -80 -97 -91 4
-217 -80 -97 -84 4
100 -52 -68 -64 4
-37 -36 -58 -48 4
-215 -53 -69 -63 4
62 -44 -59 -47 4
61 -14 -25 -12 4
-183 2 -24 -8 4
54 31 21 34 4
187 45 32 31 4
-98 34 17 24 5
-24 37 18 26 5
215 52 39 49 5
0 62 45 54 5
-54 72 55 71 5
240 90 76 86 5
140 113 85 91 5
-96 81 78 83 5
149 70 48 52 5
176 63 56 61 5
-127 44 35 43 5
35 38 24 26 5
197 15 -6 10 5
-116 -16 -14 -12 5
-97 -9 -20 -6 5
182 13 10 32 5
28 40 27 39 5
-92 58 46 51 5
216 78 76 77 5
152 79 78 96 5
-65 112 96 112 5
172 111 97 108 5
247 118 102 104 5
-38 114 94 98 5
59 92 77 83 5
277 109 89 100 5
0 86 68 77 5
-78 42 34 43 5
126 -22 -42 -32 5
-70 -60 -86 -75 5
-311 -131 -149 -134 5
4 -86 -131 -118 5
-59 -125 -147 -127 5
-283 -100 -137 -106 5
-73 -104 -131 -101 5
55 -93 -116 -94 5
-225 -85 -105 -92 5
-135 -73 -86 -77 5
107 -65 -73 -70 5
-119 -48 -67 -66 5
-184 -49 -55 -54 5
128 -14 -14 -15 5
30 8 -1 1 5
-165 5 -1 -5 5
105 23 5 7 5
94 1 -16 3 5
-146 19 2 13 5
0 -1 -24 -14 5
137 6 -25 -9 5
-108 11 -15 3 5
-81 0 -10 3 5
179 18 -4 9 5
-24 20 -3 -3 5
-143 2 -7 -4 5
137 3 -16 -4 5
79 23 -1 7 5
-168 5 -11 2 5
90 27 7 16 5
139 18 5 17 5
-133 28 15 23 5
-5 20 4 16 5
211 37 22 29 5
-74 24 11 18 5
-87 18 8 15 5
179 21 10 18 5
-5 14 4 18 5
-164 4 -12 8 5
129 7 -5 13 5
86 23 -2 14 5
-165 2 -13 -4 5
25 -25 -28 -18 5
144 8 -5 9 5
-145 -1 -13 -7 5
-41 -5 -12 -3 5
175 2 -3 2 5
-74 24 -11 0 5
-119 1 -5 -5 5
169 8 4 10 5
16 28 -4 2 5
-160 8 -9 -3 5
102 0 -14 0 5
93 4 -11 -11 5
-169 4 -17 -12 5
16 10 -3 16 5
191 37 27 25 5
-109 13 11 18 4
-35 33 21 27 4
210 42 20 24 4
-17 42 36 41 4
-127 35 21 25 4
174 33 21 33 4
74 45 20 22 4
-133 39 13 22 4
111 45 15 27 4
155 56 34 55 4
-116 47 28 34 4
33 37 25 25 4
183 47 26 26 4
-79 34 17 15 4
-51 42 27 31 4
172 7 -8 5 4
-24 9 -2 6 4
-171 -20 -45 -23 4
98 -20 -33 -11 4
44 -11 -28 -12 4
-168 -5 -15 -8 4
37 -20 -30 -33 4
144 2 -22 -13 4
-160 -19 -45 -35 4
-47 -14 -32 -13 4
218 52 35 56 4
-20 65 47 56 4
-39 79 71 76 4
194 34 24 35 4
-9 -27 -28 -22 4
-201 -26 -44 -32 4
82 -11 -34 -20 4
56 -36 -45 -34 4
-203 -36 -38 -29 4
-11 -36 -50 -46 4
118 -17 -51 -41 4
-157 -23 -32 -14 4
-54 -13 -32 -23 4
174 4 -5 5 4
-59 10 0 8 4
-138 -18 -20 0 4
118 -25 -42 -27 4
36 16 -3 0 4
-140 9 4 10 4
100 10 3 12 4
129 22 4 13 4
-149 9 -7 4 4
31 20 19 26 4
201 46 25 35 4
-85 21 21 33 4
-37 43 25 42 4
207 42 22 30 4
3 42 14 20 4
-119 26 4 10 4
158 30 10 21 4
92 62 32 37 4
-129 26 12 -1 4
97 33 0 5 4
150 32 7 21 4
-139 7 -29 4 4
-80 -37 -45 -36 4
155 -9 -28 -16 4
-112 -12 -38 -28 4
-98 1 -17 -9 4
141 -16 -26 -13 4
-13 8 -23 5 4
-175 -24 -33 -24 4
97 -16 -29 -23 4
56 -12 -28 -19 4
-214 -33 -56 -51 4
32 -11 -16 -15 4
121 -20 -12 -16 4
-162 -28 -24 -24 4
-71 -25 -43 -22 4
198 27 -10 6 4
-71 10 -16 -2 4
-106 16 -7 11 4
159 8 -6 1 4
10 6 -8 0 4
-150 7 10 10 4
126 24 -1 1 4
131 38 24 30 4
-123 36 3 26 4
28 24 28 18 4
160 13 0 14 4
-92 32 7 21 4
-51 24 10 20 4
232 52 30 44 4
-16 20 13 31 4
-104 40 14 31 4
163 33 22 36 4
77 42 23 37 4
-138 18 16 27 4
100 48 28 36 4
128 24 -5 11 4
-154 -2 -38 -14 4
-42 -27 -51 -39 4
121 -19 -28 -22 4
-114 -9 -14 -10 4
-109 -18 -3 -11 4
140 -17 -13 -20 4
-48 -16 -27 -32 4
-161 -28 -40 -30 4
112 -13 -36 -19 4
83 25 -17 6 4
-177 -1 -28 -17 4
45 6 -20 -9 4
139 10 -17 0 4
-143 5 -102 -26 4
-17 10 -118 -28 4
171 4 -95 -10 5
-70 23 23 29 5
-100 20 116 52 5
154 -2 122 26 5
30 29 90 28 5
-140 13 32 3 5
111 7 18 21 5
109 27 13 27 5
-155 21 -5 7 5
36 15 -23 0 5
152 23 8 19 6
-111 11 -61 -8 6
-49 16 -78 -20 6
174 22 -65 4 6
-50 8 43 31 6
-130 4 120 52 6
126 -3 88 17 7
52 38 42 18 7
-156 8 -19 -9 7
96 26 -9 11 7
120 24 -14 9 7
-135 27 -45 -10 7
-4 -7 -62 -15 8
153 17 -46 -7 8
-107 6 -38 -5 8
-73 0 -97 -21 8
170 10 -130 -22 9
-21 12 -98 -11 9
-146 -9 62 25 9
133 12 190 23 9
60 12 174 17 9
-156 11 79 5 10
66 4 30 14 10
130 12 16 14 10
-137 9 -21 -6 10
-14 11 -42 6 11
187 24 -36 18 11
-76 13 -60 -4 11
-84 15 -35 3 11
180 23 -50 20 12
12 29 -34 25 12
-137 20 -3 26 12
124 28 49 36 12
98 29 63 28 12
-150 12 -39 -13 13
41 -1 -99 -24 13
135 -3 -73 -28 13
-137 -3 79 34 13
-52 2 131 26 13
161 4 67 4 14
-66 1 -30 -14 14
-114 5 -52 -12 14
148 5 -68 -2 14
33 20 -36 8 15
-145 11 -89 -27 15
92 -4 -61 -10 15
99 8 -7 4 15
-161 7 65 13 15
21 25 17 26 16
168 27 -83 2 16
-124 -1 -115 5 16
-74 1 92 26 16
147 0 236 32 16
-25 20 123 0 17
-111 13 16 -1 17
159 23 -9 7 17
68 30 32 29 17
-145 12 -33 -7 18
78 10 -118 -22 18
120 5 -87 -6 18
-136 5 17 19 19
-2 5 68 35 19
166 15 -28 -5 19
-85 11 -151 -36 20
-92 -2 -200 -31 20
164 12 -24 29 21
-14 15 99 9 21
-136 8 131 34 21
120 8 53 9 22
69 3 21 6 22
-160 2 32 12 22
80 8 -43 -32 23
140 23 -38 15 23
-132 13 35 28 23
-42 1 131 27 24
158 3 27 2 24
-78 5 -146 -34 25
-98 13 -133 -12 25
164 13 37 37 25
26 23 126 69 26
-133 15 -18 -1 26
117 8 -144 -27 27
96 10 -62 -17 27
-151 25 159 77 27
27 15 74 -1 28
144 9 -49 -27 28
-122 -5 -132 -48 29
-88 -13 32 5 29
145 9 85 20 29
-47 18 -24 10 30
-125 7 -129 -31 30
158 21 -76 -3 31
40 22 77 22 31
-154 8 22 0 31
76 5 -40 -9 32
116 10 -37 -4 32
-152 7 64 40 33
24 24 1 20 33
173 23 -126 -11 33
-57 40 -89 -2 34
-51 23 131 69 34
165 14 180 37 35
-28 2 21 -32 35
-151 -14 -160 -80 35
127 4 -133 -39 36
46 18 119 58 36
-173 11 95 59 37
56 9 -27 -10 37
138 22 -109 6 37
-130 17 -35 8 38
-12 23 114 48 38
174 21 9 -6 38
-66 0 -88 -17 39
-96 -1 -21 -11 39
136 1 77 12 40
-20 2 61 12 40
-141 4 -36 -31 40
98 -2 -63 -15 41
68 8 37 34 41
-159 15 67 23 41
42 17 -20 21 42
147 11 -149 -14 42
-118 4 -128 -8 42
-64 -10 41 -7 43
161 8 50 23 43
-46 21 -50 -21 44
-90 14 -95 -26 44
144 9 58 39 44
39 31 205 64 44
-146 20 103 45 45
99 16 -32 -6 45
106 8 -18 6 46
-171 -6 17 7 46
13 3 47 18 46
178 28 -175 -34 46
-82 20 -231 -59 47
-36 31 -89 -14 47
144 4 146 72 48
-48 11 84 22 48
-121 0 -131 -48 48
145 32 -134 -7 49
81 46 133 62 49
-141 39 287 101 49
96 28 123 38 50
125 5 -58 -18 50
-171 -20 -97 -4 50
-35 -13 8 -29 51
160 -5 -80 -30 51
-62 31 -138 -36 52
-47 58 -28 53 52
239 89 189 113 52
31 52 38 63 53
-143 3 -157 -48 53
124 1 -106 -37 54
49 -7 157 36 54
-186 -12 171 -3 54
22 -31 -76 -52 55
84 -43 -245 -89 55
-216 -53 -72 -45 56
-88 -31 -5 -54 56
134 -20 -164 -94 57
-108 -19 -172 -48 57
-129 -1 32 25 57
143 7 176 68 58
6 17 89 25 58
-157 -2 -98 -33 59
113 3 -43 12 59
97 19 116 26 60
-150 24 -39 -11 60
60 22 -171 -35 61
187 32 -36 42 61
-96 34 182 75 61
-20 45 306 112 62
239 77 77 72 62
18 79 -10 93 63
-22 85 86 88 63
244 107 244 136 64
119 101 95 75 64
-74 90 -209 6 65
120 27 -333 -53 65
63 -33 -30 -25 66
-244 -70 188 -10 67
-103 -106 -23 -80 67
65 -90 -239 -126 68
-186 -65 -233 -113 68
-121 -35 2 -19 69
120 -23 127 5 69
-35 0 1 -11 70
-133 -6 -196 -42 70
138 8 28 22 71
50 11 134 49 71
-171 2 113 -16 72
47 -15 -146 -83 72
102 -17 -178 -61 73
-158 -22 -18 -32 73
-47 -5 168 35 74
172 28 158 79 74
-51 24 74 32 75
-66 24 -181 -14 75
203 26 -190 -12 76
34 33 -118 -26 76
-129 30 83 12 77
127 25 136 58 77
85 20 -118 -10 78
-169 -9 -226 -98 78
28 0 15 -50 79
143 20 289 94 79
-142 10 255 80 80
-47 2 -11 23 80
177 12 -156 -39 81
-52 14 -92 -38 81
-107 20 85 22 82
179 28 -129 -30 82
34 32 -232 -84 83
-145 17 18 25 83
99 15 267 87 83
105 18 220 111 84
-144 21 -85 11 84
44 21 -185 -18 85
185 21 28 28 85
-93 15 59 -32 86
-60 9 121 37 86
204 21 -8 0 87
-14 18 -251 -50 87
-111 18 -135 16 87
163 27 150 36 88
69 46 200 95 88
-155 33 78 57 89
78 16 -215 -79 89
121 -2 -70 0 89
-155 32 229 68 90
12 28 114 52 90
183 26 -12 6 91
-86 12 -143 -45 91
-87 13 -126 -1 91
177 14 -8 13 92
-17 7 -41 -15 92
-153 6 49 -65 92
146 12 158 74 93
89 32 50 46 93
-151 10 -96 10 94
34 -2 -89 -56 94
107 -12 215 43 94
-198 -26 132 12 95
-64 -48 -219 -82 95
139 -43 -381 -136 95
-128 -39 10 -10 96
-137 -13 255 45 96
146 -2 126 32 97
-5 0 -274 -90 97
-188 -29 -244 -41 97
117 16 124 28 98
98 27 122 36 98
-148 28 -196 -28 98
50 7 -191 -54 99
153 18 -42 12 99
-129 25 297 41 99
-59 17 152 80 99
178 5 -68 19 100
-59 0 24 8 100
-110 27 232 55 100
175 39 100 -9 101
61 28 -236 -65 101
-145 19 -138 -7 102
108 29 152 79 102
135 37 121 57 102
-124 21 -143 -38 103
9 1 -374 -85 103
155 4 -6 20 103
-112 -3 75 22 104
-98 -2 -26 12 104
175 -1 -27 13 104
-30 15 6 -4 105
-130 26 177 16 105
160 31 185 54 105
56 16 78 31 106
-158 2 -123 -4 106
67 -5 -110 -20 106
144 15 39 32 107
-149 20 220 45 107
-39 0 -47 7 107
168 -3 -203 -49 108
-93 -2 -17 -29 108
-108 6 114 6 108
165 21 93 36 109
-4 9 -161 -1 109
-158 -19 -273 -89 110
130 10 36 32 110
78 16 204 89 110
-153 22 46 55 111
44 -4 -58 -44 111
160 6 -120 -42 111
-122 24 107 64 112
-40 18 160 52 112
175 -8 -265 -116 112
-57 -9 -275 -95 113
-116 19 252 132 113
158 29 268 120 113
48 37 -37 26 114
-175 -20 -458 -165 114
103 13 66 44 114
116 32 317 86 115
-137 32 118 -2 115
12 1 -217 -51 115
184 21 55 30 116
-121 11 129 57 116
-52 26 132 82 116
198 1 -362 -96 117
-33 7 -140 3 117
-126 29 205 107 117
156 36 166 46 118
75 31 -43 -4 118
-181 -22 -333 -70 118
92 14 50 28 119
115 18 257 66 119
-144 16 215 48 119
-21 -16 -293 -37 119
181 4 -116 12 120
-112 8 43 -7 120
-83 10 221 -14 120
143 -2 -19 -8 120
-15 -2 -145 -21 121
-192 -25 -79 15 121
158 42 238 35 121
71 -3 -59 -55 121
-170 24 149 64 121
54 -10 -66 -1 122
150 6 -98 -1 122
-170 0 -281 -73 122
-13 14 80 45 122
170 24 130 17 123
-70 41 62 19 123
-136 -46 -496 -116 123
182 24 243 98 123
8 28 376 100 123
-160 15 72 -25 123
102 -15 -215 -35 124
90 -8 -155 -41 124
-190 6 286 69 124
60 41 198 136 124
190 30 -23 9 124
-136 15 4 21 124
-47 12 127 22 125
177 -1 -168 -51 125
-62 21 56 22 125
-112 14 -86 -50 125
139 1 -44 -16 125
47 13 18 38 125
-165 2 -22 -16 126
85 -4 -98 -53 126
121 9 -58 -7 126
-162 -11 -411 -107 126
0 -33 -255 7 126
168 24 342 19 126
-101 40 393 58 126
-87 28 237 60 126
189 1 -444 -114 127
-14 -9 -244 -52 127
-144 46 396 86 127
148 45 414 135 127
62 24 57 29 127
-150 6 -295 -49 127
51 -25 -440 -122 127
154 27 237 97 127
-141 20 130 20 128
-13 23 254 53 128
186 13 -67 -11 128
-84 4 -238 -52 128
-95 5 -116 -41 128
175 19 26 0 128
0 10 -47 13 128
-163 -1 -68 -14 128
134 22 -94 24 128
72 9 -66 0 128
-153 12 177 90 128
45 8 195 17 128
137 6 -91 -53 128
-111 37 1 5 128
-45 36 -81 -13 128
205 56 63 63 128
-51 8 -116 -13 128
-122 15 -68 -25 128
170 6 90 16 128
39 31 114 38 128
-161 13 51 26 128
114 16 -68 18 128
121 7 -147 -43 128
-142 20 20 18 128
29 23 36 30 128
179 44 46 18 128
-102 20 -5 0 128
-62 5 -67 -9 128
180 15 -47 -12 128
-27 26 -70 -1 128
-146 2 -132 -14 128
146 10 43 6 128
53 19 166 62 127
-165 20 107 22 127
89 23 22 52 127
132 19 -52 4 127
-155 14 9 -6 127
-6 10 9 -19 126
168 9 -21 0 126
-102 3 -11 12 126
-98 20 4 8 126
174 7 -6 1 126
-15 2 -83 -27 125
-152 1 -110 -18 125
129 18 48 29 125
71 13 78 31 125
-158 10 90 24 125
55 12 -21 -15 124
152 10 -94 -19 124
-141 4 -52 -18 124
-48 1 -79 -25 124
189 34 117 80 123
-70 12 48 17 123
-103 24 114 64 123
169 14 -42 0 123
15 17 -20 18 122
-161 5 -32 -5 122
123 8 -26 -5 122
83 7 17 -13 121
-167 7 46 13 121
28 7 24 2 121
156 9 -28 -5 120
-127 1 -40 -9 120
-70 0 -26 -11 120
181 15 4 17 119
-43 11 -43 0 119
-127 0 -121 -33 119
167 14 20 31 118
50 23 51 52 118
-160 25 83 44 118
95 8 -73 -41 117
112 0 -124 -54 117
-161 0 38 30 116
-2 8 160 100 116
170 18 108 32 115
-102 16 26 0 115
-96 16 -22 -24 114
178 10 -6 0 114
-24 13 -59 1 113
-137 7 -60 -17 113
139 13 -13 2 113
65 13 -21 0 112
-164 15 -17 5 112
57 14 -21 -4 111
142 12 -33 -12 111
-157 5 -12 -2 111
-11 16 -19 0 110
193 26 9 34 110
-84 5 -153 -48 109
-112 -5 -108 -34 109
146 6 99 33 108
-8 11 62 39 108
-161 10 74 29 107
122 31 25 38 107
87 8 26 -12 106
-156 7 115 36 105
43 -6 -3 -33 105
157 7 -12 -11 105
-126 4 -1 -1 104
-51 -5 -58 -18 104
173 7 -61 -8 103
-44 14 -21 4 103
-106 11 -25 4 102
171 14 -35 3 102
37 17 -14 9 102
-152 10 -15 1 101
93 14 -12 4 101
111 9 -66 -25 101
-166 5 -46 -26 100
3 10 9 30 100
154 19 63 46 99
-118 10 -3 14 99
-70 -7 -178 -70 98
166 1 -92 -30 98
-36 19 128 100 97
-128 12 137 37 96
141 16 152 32 96
61 13 29 -14 95
-158 11 16 8 95
55 9 -4 7 94
142 20 -42 0 94
-137 14 -36 -7 93
-25 12 -15 6 92
181 15 -34 3 92
-65 11 -43 -12 91
-112 0 -42 -14 91
133 -2 -43 -5 90
10 13 1 1 90
-137 8 17 20 89
152 9 -31 -5 89
103 3 -117 -46 88
-164 4 -69 -4 87
20 1 61 33 87
139 6 9 31 86
-133 13 3 25 85
-42 10 -2 1 85
166 10 68 5 84
-60 0 127 12 83
-95 22 80 18 83
164 26 37 32 82
37 38 -3 29 81
-130 31 -38 4 81
122 31 -25 13 80
113 31 -23 14 80
-172 11 -36 -3 79
31 5 -38 -7 78
179 11 -23 3 78
-84 19 -22 12 77
-17 20 -64 4 77
187 12 -68 -10 76
-54 8 -1 -1 76
-137 -8 -24 -32 75
116 -13 -22 -27 74
30 -8 -49 -19 74
-170 -4 -1 8 73
61 -1 152 81 73
113 7 129 39 72
-156 -6 30 0 71
-20 -3 -32 -25 71
149 7 -40 -14 70
-97 8 -3 -5 70
-95 10 -7 -6 69
140 12 -27 -8 69
-29 8 -43 -8 68
-124 -1 -48 -32 68
131 1 -38 -10 67
80 4 -67 -9 67
-143 9 -57 -5 66
57 17 2 27 66
125 22 33 17 65
-112 24 -27 21 65
4 29 -34 18 64
189 36 12 37 64
-55 27 6 4 63
-92 12 -47 -21 63
177 16 -43 -2 62
11 17 111 51 61
-152 6 180 71 61
97 7 98 16 60
69 -5 -63 -20 60
-170 -7 -65 -29 59
24 2 -9 -17 59
148 10 -4 -3 58
-127 9 -40 -25 57
-55 1 -40 -8 57
178 22 -38 8 56
-56 17 -31 6 56
-85 25 -28 6 55
148 0 -94 -15 55
27 14 -46 2 54
-145 13 -8 -2 54
103 19 46 12 54
120 30 24 30 53
-131 35 -2 27 53
24 5 3 5 52
167 24 49 14 52
-108 14 52 -5 51
-27 48 13 38 50
201 48 11 29 50
-8 26 40 29 49
-142 1 81 13 49
129 5 71 12 48
31 -7 -4 -8 48
-162 -4 -39 -10 47
30 -35 -77 -48 47
103 -11 -52 -15 46
-133 4 -27 0 46
-7 15 -5 7 45
168 16 -12 2 45
16 87 32 66 44
-56 52 6 45 44
225 64 44 81 43
10 31 -11 22 43
-89 44 -13 38 42
105 24 -71 1 42
68 7 -43 1 41
-138 15 53 24 41
14 -20 86 -6 40
103 -9 67 -4 39
-118 8 7 0 39
-77 -24 -100 -37 38
156 12 -35 -9 38
-65 -9 1 -5 37
-98 -8 12 -20 37
134 -32 -26 -30 36
50 -11 -33 -19 36
-169 -16 -50 -26 35
69 -3 -21 1 35
50 2 -32 2 34
-190 15 -18 8 34
-9 4 -17 8 33
159 31 -17 10 33
-142 -11 -47 -33 32
-6 48 -12 23 32
152 -7 12 2 32
8 38 77 51 31
-104 22 25 19 31
144 26 1 22 30
46 5 -15 12 30
-180 -33 -24 -24 29
108 36 -8 13 29
128 24 -35 9 29
-134 5 -49 0 28
30 25 38 35 28
155 5 38 4 27
-86 9 45 22 27
-52 30 17 20 26
184 29 10 22 26
20 32 12 28 26
-120 24 11 28 25
135 11 -14 18 25
71 15 -22 9 24
-177 -15 -28 -8 24
48 2 -19 -5 24
149 23 12 16 23
-110 28 16 22 23
-12 8 -5 3 22
161 12 -13 3 22
-61 34 0 10 22
-78 27 12 12 21
158 11 -2 5 21
4 11 -12 -11 20
-156 -5 -22 -10 20
100 10 -11 0 20
80 -3 -8 -2 19
-139 23 10 16 19
-3 -20 -28 -21 19
157 18 22 25 18
-96 27 -8 -11 18
-62 -11 -3 5 18
145 -11 -46 -24 17
-50 17 38 52 17
-110 19 -38 0 17
147 15 11 25 16
31 4 -14 1 16
-144 18 15 25 16
95 18 11 -2 15
119 16 19 11 15
-110 52 66 83 15
7 12 10 29 14
190 33 33 57 14
-86 11 -39 -32 14
-71 9 4 5 13
160 24 26 38 13
-29 12 -10 -1 13
-139 4 3 -2 13
119 0 -9 0 12
30 -8 -23 -3 12
-160 14 -11 1 12
75 20 4 4 12
124 2 -10 -7 11
-136 8 -10 2 11
20 51 14 28 11
146 7 -2 -5 10
-56 28 -7 2 10
-113 -21 -15 -7 10
175 34 6 17 9
5 16 9 -7 9
-139 8 13 9 9
112 17 -41 -35 9
64 2 -15 2 8
-145 14 -24 -20 8
81 39 12 20 8
184 48 -9 7 8
-116 20 -72 -63 7
-56 2 -16 28 7
153 -6 -9 21 7
-51 23 -16 22 7
-125 1 -7 0 6
130 -6 -22 -24 6
24 6 5 16 6
-140 15 18 26 5
120 36 25 28 5
143 51 35 25 4
-132 16 16 16 4
32 31 14 21 4
174 45 18 25 3
-112 -9 -9 -1 3
-100 -26 -59 -94 3
141 -9 28 8 2
-33 10 -7 25 2
-120 13 -32 10 2
132 6 -21 -8 2
17 -27 -70 -50 1
-158 2 6 24 1
48 -12 -17 15 1
106 5 3 10 1
-159 -7 -46 -50 1
-28 -16 -48 -11 0
186 42 -14 22 0
-67 20 32 29 0
-32 56 43 41 0
144 -17 1 8 0
43 58 32 16 0
-159 -3 -6 2 0
174 49 40 45 0
100 40 28 27 0
-137 21 13 -61 0
37 -17 -30 -66 0
119 -17 -109 -46 0
-157 -10 -28 -15 0
-22 8 -45 25 0
184 7 -25 -46 0
-98 -16 -46 5 0
-114 5 -13 54 0
142 -9 -34 -27 0
10 12 10 15 0
-155 4 5 6 0
110 0 9 -2 0
104 7 10 4 0
-151 25 17 11 0
25 10 -1 2 0
227 86 40 49 0
-111 34 13 18 0
-42 21 0 13 0
178 6 -5 2 0
-43 5 -1 0 0
-141 -2 -6 -4 0
175 40 6 8 0
32 5 -3 -9 0
-158 10 -7 -16 0
80 0 -5 6 0
115 8 -14 -2 0
-150 12 -9 13 0
0 0 -30 -23 0
146 -7 -7 -11 0
-97 22 -7 4 0
-65 12 -4 12 0
175 16 7 17 0
12 42 17 21 0
-131 13 3 5 0
121 6 5 6 0
97 48 21 28 0
-161 6 -4 5 0
53 11 -4 -2 0
118 1 -14 -5 0
-153 -13 -32 -25 0
-18 4 -11 -10 0
168 15 -10 3 0
-72 9 5 22 0
-99 -12 -36 -14 0
143 -13 -20 -6 0
5 19 0 9 0
-139 9 -8 3 0
120 9 -5 10 0
75 4 -13 -2 0
-166 8 -26 -6 0
43 7 -31 -1 0
139 13 -9 3 0
-121 15 15 16 0
-41 6 21 7 0
170 9 -2 9 0
-33 23 -13 8 0
-113 8 -40 -5 0
152 10 32 15 0
37 24 36 5 1
-159 7 55 1 1
99 8 22 -1 1
106 14 -11 9 1
-155 1 -48 0 1
32 14 -44 -1 1
126 -19 -48 -15 1
-96 23 16 32 2
-44 24 36 22 2
177 7 -16 9 2
-24 22 -37 0 2
-112 21 -49 10 3
142 15 13 20 3
56 31 34 32 3
-145 20 -76 -23 3
87 8 -164 -60 4
117 10 -175 -25 4
-143 14 73 15 4
-45 -21 344 107 4
163 23 322 61 5
-98 13 152 35 5
-74 17 -16 -12 5
170 9 -62 -1 6
-19 7 -60 -3 6
-123 24 -101 -4 7
137 16 -101 8 7
80 24 -24 14 7
-152 11 -36 -8 8
54 4 -65 -16 8
138 8 -84 -15 9
-134 7 -40 13 9
-43 -2 64 15 10
199 38 14 17 10
-31 41 -27 -2 11
-76 38 -91 16 11
170 30 43 48 12
20 30 86 36 12
-110 42 49 27 13
99 8 -67 4 13
76 -4 -52 -27 14
-143 15 136 29 14
-3 -11 120 0 15
121 -6 -57 -53 15
-150 -38 -124 -62 16
-91 -33 -57 -43 16
126 -15 84 25 16
-42 6 50 29 17
-137 -22 -75 -25 17
147 12 -93 -2 18
40 17 -102 1 18
-148 8 -111 -3 19
112 25 -140 -9 19
99 6 -53 -22 20
-163 7 31 -5 20
16 14 156 19 21
130 -11 112 -8 21
-99 -6 8 -26 21
-102 -23 -52 -20 22
167 25 68 42 22
-41 -2 96 20 23
-117 16 -60 -17 23
124 -4 -256 -65 24
46 11 -117 0 24
-136 25 94 35 25
83 29 175 57 25
162 53 -16 14 26
-83 60 -62 46 26
33 50 81 61 27
180 42 205 77 27
-75 11 120 26 28
-116 -12 -161 -46 28
140 -7 -147 -32 29
-17 -12 -9 -32 29
-128 13 139 37 30
118 12 87 16 30
93 18 -83 -6 31
-134 16 -106 -4 32
29 10 -81 5 32
149 25 -36 15 33
-134 -16 -90 -31 33
-24 13 -189 -64 34
178 25 -126 -19 34
-1 80 93 69 35
-49 76 416 182 36
234 107 307 138 36
112 100 64 92 37
-52 94 -96 43 37
107 13 -19 23 38
83 0 31 6 38
-156 8 -8 -10 39
15 14 -67 -25 39
120 -15 82 -15 40
-135 -25 185 25 41
-132 -66 -38 -52 41
109 -47 -207 -81 42
-18 12 -192 -26 42
-148 -20 -80 -29 43
74 -49 60 -9 43
0 -52 -19 -33 44
-177 -38 -154 -70 44
42 -18 -167 -39 45
85 -18 -21 -33 46
-139 26 131 55 46
-25 28 7 -4 47
170 27 -94 -16 47
-83 -1 -55 0 48
-111 -3 50 17 48
183 55 78 50 49
17 33 57 18 49
-137 3 84 22 50
118 0 53 12 50
51 -9 -8 8 51
-147 10 -68 2 51
62 24 47 26 51
149 20 53 26 52
-133 2 -40 -20 52
-32 -9 -84 -35 53
167 0 1 -1 53
-74 -2 -29 -8 54
-111 -3 -247 -34 54
165 15 -97 10 54
14 13 68 43 55
-153 9 190 49 55
112 10 -127 -44 56
92 4 -122 8 56
-141 32 151 22 57
-2 -1 432 66 57
192 61 247 62 58
-100 27 -117 -10 58
-33 24 -177 -2 59
199 17 -202 -22 59
-26 26 -71 3 60
-109 29 26 50 60
161 28 13 24 61
53 23 105 45 61
-177 14 147 64 62
77 11 138 27 62
116 17 -106 -8 63
-145 3 -274 -55 63
5 5 -74 -2 64
156 6 102 32 64
-112 -10 -17 -24 65
-76 7 -28 -34 65
173 25 -196 -54 66
-15 2 -160 3 66
-146 -7 -103 37 67
113 0 233 81 67
79 31 497 123 68
-138 20 31 -10 68
88 11 -149 -26 69
141 23 56 3 70
-142 18 332 90 70
-30 12 169 55 71
167 13 -130 -1 71
-86 8 -231 -60 72
-87 6 -149 -36 73
192 26 -83 16 73
12 36 -42 32 74
-115 20 38 26 75
126 17 -17 -25 75
91 8 -165 -1 76
-158 1 -112 -38 77
33 -5 14 -20 77
130 6 116 37 78
-129 9 98 -8 78
-41 10 -181 -63 79
186 8 -135 -40 79
-51 10 97 -12 80
-122 9 245 84 80
156 26 111 41 81
32 24 -65 25 81
-161 7 -137 -7 82
92 16 10 2 82
97 14 99 42 83
-159 14 14 16 83
6 8 -300 -54 84
148 -1 -116 -34 84
-119 11 164 28 85
-81 6 247 31 85
163 4 -112 -48 86
-36 4 -375 -102 86
-153 -3 26 4 87
137 20 286 63 87
44 13 120 68 88
-155 8 -330 -46 88
61 -12 -161 -28 89
113 2 175 -14 89
-160 1 340 52 89
-12 -2 -34 -22 90
182 10 -279 -52 90
-95 0 25 35 91
-93 6 168 43 91
164 10 155 46 92
-8 8 -28 17 92
-140 -2 -151 -44 92
136 11 -97 -11 93
79 13 -97 -18 93
-179 3 -227 8 94
59 22 -191 -27 94
135 29 111 44 94
-136 23 189 13 95
2 11 199 14 95
201 41 77 46 95
-30 41 -64 36 96
-85 29 111 38 96
174 18 -173 -61 97
25 22 47 19 97
-164 6 285 138 97
127 24 122 42 98
105 11 -305 -105 98
-239 -9 -120 -38 99
44 19 188 83 99
194 31 261 76 99
-93 14 -205 -54 100
-40 -25 -347 -92 100
172 27 155 64 101
-51 22 235 82 101
-124 3 -286 -35 101
169 -21 -289 -99 102
2 -20 96 -24 102
-219 -5 333 64 102
73 1 72 28 103
103 -22 -480 -99 103
-174 -3 -156 -42 104
-1 11 358 89 104
162 27 276 89 104
-100 11 -382 -77 105
-81 -14 -293 -56 105
167 14 268 73 105
-28 11 382 65 106
-132 13 162 30 106
127 -16 -577 -166 107
76 28 -92 6 107
-174 12 266 80 107
80 40 297 116 108
140 13 -226 -65 108
-138 0 -308 -57 108
0 34 53 33 109
178 36 81 44 109
-74 17 -148 -21 109
-64 11 97 7 110
168 36 126 47 110
28 48 274 59 110
-124 25 53 36 111
132 17 -134 -12 111
101 21 68 45 111
-135 33 55 17 112
55 14 -133 -41 112
155 10 -169 -30 112
-108 28 -32 57 113
-71 17 -54 -20 113
220 47 -16 48 113
-7 50 114 53 114
-38 74 56 49 114
230 54 76 69 114
65 55 220 84 115
-139 26 128 30 115
91 3 -29 -17 115
109 -2 -291 -32 115
-189 -34 -471 -105 116
-11 -3 268 76 116
132 14 390 77 116
-151 -13 159 -59 117
-106 -41 -304 -146 117
83 -33 -317 -59 117
-45 32 320 141 117
-40 51 307 144 118
209 57 109 75 118
135 18 -495 -131 118
-144 23 -155 -22 118
92 53 294 135 119
96 -9 199 26 119
-253 -116 -177 -147 119
-193 -201 -665 -321 120
-9 -146 -167 -149 120
-226 -87 210 -12 120
-176 -94 -141 -68 120
20 -157 -770 -315 121
-74 -44 114 -24 121
-185 -8 495 108 121
123 16 322 58 121
48 -17 -513 -123 122
-147 4 -194 -40 122
62 58 406 123 122
187 83 410 134 122
-101 1 -503 -187 123
-28 -6 -387 -31 123
190 72 295 138 123
-1 72 332 165 123
-46 52 132 50 124
195 16 -208 -77 124
16 3 -338 -106 124
-117 43 156 92 124
136 56 118 97 125
128 40 -151 54 125
-187 -46 -383 -76 125
80 80 343 105 125
191 65 400 146 125
-71 86 416 133 126
-37 -19 -795 -234 126
161 -28 -246 -105 126
-42 63 514 130 126
-87 48 443 135 126
193 39 106 64 126
41 -5 -336 -74 127
-182 4 -63 -42 127
78 13 29 9 127
125 2 -169 -50 127
-163 -21 -471 -130 127
-6 4 130 24 127
160 25 163 64 127
-107 30 294 58 127
-48 12 -31 13 127
182 12 -229 -29 128
-22 21 74 78 128
-131 9 18 27 128
129 0 -66 -37 128
62 17 134 10 128
-153 23 132 63 128
63 18 69 27 128
138 11 -123 -36 128
-131 0 -98 -47 128
-27 1 -13 17 128
178 16 -1 20 128
-67 15 -22 -13 128
-112 10 -71 -41 128
184 17 45 34 128
-2 8 -56 -2 128
-134 48 47 52 128
124 10 -85 -24 128
88 16 -90 13 128
-152 12 -144 -16 128
39 23 149 38 128
160 39 217 35 128
-123 20 171 40 128
-43 16 -20 5 128
173 18 -108 2 127
-35 24 20 11 127
-112 20 21 1 127
167 29 -6 25 127
37 15 -22 0 127
-152 12 -39 -11 127
94 12 8 13 127
112 18 -8 4 127
-163 -4 -82 -22 126
-4 -6 -34 -11 126
162 14 2 13 126
-109 7 9 13 126
-62 -2 -29 -12 126
167 -5 -325 -118 125
-46 -6 19 67 125
-132 20 214 77 125
143 21 176 69 125
59 29 103 36 124
-153 12 -107 -57 124
76 14 6 12 124
134 23 -21 5 123
-172 13 -51 1 123
-9 18 54 22 123
201 16 88 28 122
-79 16 10 2 122
-63 7 -76 -9 122
177 16 -11 10 122
-24 17 1 5 121
-154 9 -27 -3 121
138 10 -25 -1 120
67 9 -21 -10 120
-175 -2 -67 -29 120
56 9 -14 19 119
129 7 -24 15 119
-123 10 -114 -34 118
-49 13 -1 14 118
177 32 29 11 117
-89 14 62 63 117
-128 0 -119 -32 116
133 2 31 -7 116
0 7 166 40 115
-167 3 151 21 114
103 6 -22 -4 114
100 12 -68 -18 113
-200 7 7 -1 113
28 10 1 15 112
162 8 -66 -17 112
-89 14 -14 3 111
-20 28 6 16 111
205 26 -20 12 110
-40 28 -19 12 110
-115 13 -39 -6 109
162 26 -8 16 109
59 36 40 48 108
-151 5 -117 -47 107
79 2 -69 -18 107
106 10 62 43 106
-155 12 149 61 105
-22 2 114 30 105
178 6 14 0 104
-99 8 0 20 103
-60 9 18 15 103
175 0 -30 -20 102
-33 -4 -43 -37 101
-157 -2 -23 -15 101
152 8 -22 -8 100
53 7 -27 -14 100
-174 -5 -36 -13 99
62 -4 -35 -14 99
115 -2 -35 -17 98
-137 -3 -55 -30 97
-31 0 -12 10 97
177 21 -2 16 96
-64 25 -9 6 96
-64 33 -32 23 95
194 32 -42 18 94
14 34 -58 4 94
-168 17 79 31 93
136 17 147 43 92
85 11 93 29 91
-155 8 56 23 91
38 -2 -17 4 90
156 16 42 4 89
-126 8 17 -1 89
-49 6 -36 -13 88
166 16 -54 -8 87
-70 9 -48 -19 87
-102 5 -39 -11 86
164 28 -25 8 86
27 29 -15 9 85
-165 -4 -29 -9 85
84 -9 -38 -17 84
88 -3 -35 -2 83
-145 10 -49 -12 83
17 2 -53 -27 82
148 4 -49 -17 82
-104 24 11 48 81
-56 10 -2 38 80
181 11 -35 -1 80
-55 -4 87 46 79
-139 2 122 5 78
136 8 181 59 77
56 10 43 1 77
-155 8 -10 -4 76
76 11 -46 -6 75
118 16 -39 8 75
-160 6 -53 -13 74
-17 5 -59 -10 74
182 11 -37 -3 73
-77 8 -38 -11 73
-80 4 -36 -9 72
161 7 -32 15 72
-13 0 -14 12 71
-143 9 -37 2 71
139 21 -24 14 70
75 27 -18 22 69
-158 12 -52 -12 69
88 16 9 3 68
118 -6 13 -3 68
-144 0 27 9 67
-30 6 11 13 66
168 13 12 11 66
-70 13 58 27 65
-125 9 72 20 65
150 18 77 43 64
24 19 27 14 63
-136 15 -22 0 63
140 21 -27 6 62
111 16 -47 0 61
-137 0 -47 -10 61
33 4 -32 -7 60
158 19 -28 7 60
-132 6 -39 -4 59
-64 12 -54 -3 59
178 16 -48 2 58
-66 -7 -30 -1 57
-124 12 -66 7 57
145 -1 -35 -10 56
61 34 7 28 56
-137 37 20 1 55
126 27 118 57 54
114 12 138 68 54
-149 13 122 31 53
13 4 85 31 52
177 20 3 18 52
-92 18 -25 12 51
-58 14 -29 7 51
159 9 -43 -11 50
-35 13 -41 -8 50
-153 -5 -58 -19 49
123 -2 -56 -24 49
33 -12 -49 -28 48
-167 -20 -54 -28 48
51 -6 -38 -18 47
119 -2 -34 -8 47
-156 -15 -31 -13 46
-34 -6 -16 -3 46
152 -6 -20 -3 46
-100 -8 -42 -14 45
-68 9 -5 11 45
130 -3 -53 -31 44
20 39 -26 20 44
-132 30 -21 22 43
106 12 -26 12 43
122 33 -8 19 42
-159 10 21 11 42
58 27 148 36 42
166 15 166 23 41
-128 1 93 -11 41
-48 9 7 4 40
175 11 -48 4 40
-45 14 -28 10 39
-101 18 -37 10 39
159 17 -12 17 38
42 25 11 30 38
-146 7 0 0 37
90 7 -26 -9 37
90 3 -38 -6 36
-138 25 -7 17 36
22 23 -6 14 36
151 0 -18 3 35
-117 -1 -27 -8 35
-79 -10 -25 -8 34
171 18 -3 14 34
-23 18 -2 13 34
-128 6 -10 3 33
127 3 -12 -6 33
39 0 -12 -1 32
-171 -7 -22 -10 32
75 20 -2 12 32
124 10 -3 10 31
-152 -12 -22 -8 31
-21 0 -25 -6 30
150 14 -13 3 30
-51 40 25 40 30
-61 44 28 35 29
180 26 14 23 29
-11 28 -4 3 29
-167 -20 -26 -19 28
105 -4 -21 -24 28
80 24 12 21 27
-148 23 3 12 27
40 0 -16 -5 27
87 -22 -39 -24 26
-132 7 -13 -6 26
-30 16 -2 14 25
158 1 -6 2 25
-70 -1 -8 -6 24
-108 5 -6 6 24
161 24 7 18 24
25 16 8 20 23
-129 18 6 18 23
97 4 -7 4 22
100 21 8 18 22
-134 15 15 27 22
36 5 -3 13 21
154 16 6 18 21
-111 11 -6 9 20
-47 8 0 7 20
152 -9 -46 -39 20
-32 21 32 60 19
-116 13 -43 -46 19
158 17 51 60 19
33 0 -75 -49 18
-175 -5 5 34 18
61 -10 -54 -24 18
108 6 -17 -4 17
-151 14 -17 4 17
-9 -9 -23 -15 17
152 9 10 17 16
-102 10 -15 -13 16
-60 20 7 17 16
179 24 10 20 16
-14 36 17 27 15
-138 7 0 1 15
145 16 11 12 15
60 10 3 -3 15
-161 10 12 -3 15
84 29 15 19 14
132 32 -7 7 14
-141 23 -21 1 14
-28 -5 -27 -31 14
149 -4 -2 7 14
-85 12 20 12 14
-83 21 -10 20 14
160 6 -19 -3 13
14 32 7 8 13
-153 -1 -2 -11 13
135 30 24 27 13
85 8 -22 -18 13
-147 24 1 -6 13
58 21 2 9 13
154 19 -8 4 12
-118 21 5 14 12
-25 23 -1 -9 12
187 17 -14 8 12
-66 10 17 27 12
-117 0 -7 7 12
164 16 15 3 11
4 11 10 5 11
-130 29 13 31 11
106 26 13 21 11
106 12 -23 -45 10
-164 -13 -11 -18 10
-3 -3 -34 -4 10
152 20 9 56 10
-104 18 -16 14 9
-70 8 -35 -15 9
172 32 22 26 9
-22 26 -2 22 9
-117 21 13 25 8
160 26 10 33 8
17 -12 -22 -5 8
-186 -23 -41 -36 7
55 -15 -22 -20 7
116 5 2 6 7
-147 8 0 2 6
5 9 -6 0 6
162 18 3 8 6
-121 -14 -13 -2 6
-82 6 2 -2 5
161 4 -20 -35 5
-4 23 71 73 5
-163 -13 -50 -100 4
124 8 29 53 4
62 7 -33 9 4
-158 4 -26 18 4
61 3 -12 20 4
128 4 -20 -22 4
-135 10 2 17 3
-29 9 -5 14 3
168 6 5 2 3
-60 23 18 14 3
-72 21 15 24 3
175 25 13 22 2
16 21 5 16 2
-143 29 23 29 2
92 -1 -25 -24 2
150 60 25 4 2
-150 18 23 12 2
39 15 -4 -50 1
131 -16 43 9 1
-134 -4 -95 6 1
-70 -3 -39 57 1
167 8 -51 23 1
-61 -5 -1 11 1
-135 -4 -3 -5 1
137 -1 -13 15 0
28 -1 -12 -12 0
-163 0 11 -4 0
76 10 4 9 0
133 31 10 17 0
-149 13 -14 -24 0
7 1 9 26 0
152 -5 -49 -50 0
-100 8 4 -12 0
-68 14 19 7 0
170 11 -16 4 0
-26 17 4 57 0
-138 16 -6 32 0
139 18 -3 1 0
80 22 20 28 0
-166 5 -6 1 0
80 17 4 6 0
140 20 7 10 0
-139 13 2 3 0
-17 0 -1 1 0
168 10 -4 -6 0
-101 -3 -34 -23 0
-62 32 10 19 0
151 7 -16 -8 0
32 35 6 5 0
-166 -18 -22 -29 0
124 20 -15 -1 0
82 5 15 25 0
-162 9 -22 -11 0
45 5 -1 4 0
135 19 23 43 0
-105 27 -9 6 0
-37 6 -1 14 0
186 24 9 13 0
-53 16 6 10 0
-115 1 -2 9 0
185 21 9 20 0
30 21 1 7 0
-151 12 -6 7 0
114 23 -31 8 0
110 16 -41 1 0
-158 13 -47 -3 0
34 2 -14 7 0
154 12 39 21 0
-116 4 65 10 0
-53 16 53 11 0
209 30 39 20 0
-29 16 1 12 0
-128 13 -12 -1 1
147 5 -18 -3 1
36 6 -24 -6 1
-158 2 -22 -7 1
87 11 -14 0 1
111 10 -17 -6 2
-121 30 6 13 2
-4 9 -67 -12 2
165 20 -88 -9 2
-73 16 -106 -4 3
-76 13 -23 27 3
173 17 86 46 3
-18 6 100 9 4
-142 -4 31 -19 4
124 6 -32 -16 4
70 28 -23 16 4
-155 2 76 17 5
52 -5 97 -2 5
130 1 10 -16 6
-134 8 -66 -24 6
-44 -11 -107 -21 6
166 4 -14 6 7
-72 20 79 61 7
-102 16 14 31 7
164 13 -40 9 8
12 14 -88 -8 8
-152 8 -9 9 8
105 10 26 6 9
72 1 17 -1 9
-133 37 -72 -12 9
47 11 -130 -30 10
169 28 -97 -2 10
-98 25 85 47 10
-38 20 163 57 11
191 31 29 -3 11
-25 28 -81 -16 11
-103 30 -88 -25 12
149 26 150 96 12
36 25 131 53 12
-158 7 67 37 13
95 8 -17 -4 13
108 4 -1 2 14
-142 10 -12 -6 14
9 5 -89 -24 14
160 13 -162 -35 15
-102 2 -98 -16 15
-55 16 94 51 16
166 7 71 23 16
-27 8 -41 -34 17
-148 -16 -141 -41 17
101 -13 -37 -33 18
36 2 183 69 18
-156 3 108 3 19
50 -1 30 8 19
120 4 -84 -26 20
-139 0 -108 -39 20
-22 -3 -113 -27 21
175 13 -102 -11 21
-67 5 -15 20 22
-98 10 17 31 22
155 13 57 25 23
9 34 169 77 23
-130 14 96 31 24
133 22 -8 9 25
76 5 -121 -27 25
-166 1 -58 -16 26
26 -1 16 -15 26
119 -6 -29 -36 27
-120 4 -26 -30 27
-41 4 54 18 28
170 27 28 52 28
-40 24 -25 30 29
-98 9 -102 -16 29
172 30 32 53 30
54 50 48 42 31
-121 40 27 44 31
134 44 6 20 32
106 37 88 28 32
-111 49 127 27 33
75 64 76 41 33
181 49 -49 1 34
-94 18 -127 -2 35
-74 -18 -2 7 35
115 -34 45 26 36
-64 -31 -20 -36 36
-165 -42 -142 -63 37
110 -16 -120 -59 37
6 -17 62 0 38
-171 -9 37 1 39
67 -12 -67 -30 39
100 1 -116 -30 40
-144 18 32 16 40
33 44 96 49 41
172 33 61 43 41
-80 28 48 46 42
-65 13 39 17 43
171 15 -7 3 43
-6 23 -87 -8 44
-115 12 -110 -38 44
133 15 97 19 45
81 30 -65 1 46
-161 16 -114 1 46
68 25 -92 5 47
156 11 75 30 47
-145 0 41 7 48
-22 1 -4 6 49
178 21 66 16 49
-75 25 186 -9 50
-85 17 93 4 50
160 9 -16 20 51
-5 7 -66 7 52
-159 0 43 14 52
103 6 -38 -33 53
88 8 -127 -25 54
-148 5 -250 -55 54
42 8 -239 -41 55
130 -2 12 6 55
-81 15 223 68 56
-32 2 114 25 57
175 10 -59 -17 57
-57 15 -33 -12 58
-148 -1 193 57 58
111 6 -24 19 59
15 7 -206 -33 60
-175 -6 -147 -42 60
61 -4 260 83 61
88 15 132 -4 61
-144 -5 -77 -29 62
1 15 -78 -20 63
142 19 30 54 63
-115 9 121 48 64
-71 -6 -48 -31 65
148 0 -92 -17 65
-11 9 -107 -39 66
-105 11 -134 -17 66
154 14 -98 -18 67
67 25 115 89 68
-143 17 -114 -2 68
70 16 88 38 69
142 26 207 56 70
-127 16 207 11 70
-11 12 69 6 71
168 16 -252 -80 71
-75 14 -150 -23 72
-78 30 18 31 73
143 17 -104 -25 73
21 18 -28 -20 74
-172 1 143 7 75
106 8 237 116 75
76 23 120 58 76
-156 11 -215 -52 76
40 4 -118 -35 77
158 14 156 78 78
-134 5 60 38 78
-35 4 -123 -40 79
178 18 -136 -49 80
-56 15 57 18 80
-92 14 -118 -27 81
148 -3 -233 -56 81
-9 4 -170 -55 82
-136 17 274 83 82
101 35 416 139 83
116 30 -156 -13 84
-131 11 -149 -22 84
31 10 -28 -34 85
155 26 206 42 85
-109 23 59 34 86
-30 17 -330 -70 86
156 19 -80 49 87
-26 42 162 33 87
-105 23 43 15 88
151 25 56 -24 88
34 12 186 95 89
-174 12 68 37 89
58 13 -81 -10 90
126 7 -287 -62 90
-145 -4 -147 -43 91
11 1 90 44 91
152 -2 -65 -25 92
-94 16 74 -7 92
-80 12 158 32 93
173 31 -52 36 93
-23 8 7 45 94
-125 7 40 -13 94
131 13 57 -3 95
64 -1 -175 -71 95
-169 -4 -205 -37 96
45 3 232 107 96
140 14 136 25 97
-139 -2 -45 -10 97
-22 -14 -228 -89 98
144 -2 -148 -1 98
-81 12 184 79 99
-91 8 -158 -56 99
158 -10 -81 -55 99
19 28 199 63 100
-150 7 137 47 100
124 12 -82 11 101
74 -15 -330 -71 101
-171 3 -44 9 102
52 20 165 41 102
153 7 94 0 102
-96 -1 -153 -14 103
-51 4 -178 -52 103
161 36 247 85 104
-95 9 161 31 104
-98 -9 -113 -41 105
167 20 85 36 105
44 20 -77 14 106
-158 -3 -271 -100 106
78 0 -70 -33 106
116 22 205 44 107
-150 15 86 63 107
9 0 -281 -66 108
184 22 -118 -54 108
-112 27 327 76 108
-56 44 430 107 109
183 4 -152 -50 109
-23 -1 -363 -93 110
-152 0 -70 -12 110
152 34 205 139 110
67 23 -83 8 111
-132 2 -129 -50 111
87 23 -209 -43 112
105 2 112 22 112
-118 30 263 44 112
-16 -11 -212 -106 113
129 -4 -179 -104 113
-97 26 104 54 113
-51 31 244 108 114
196 46 -18 49 114
22 25 -484 -70 115
-145 3 -80 12 115
95 27 484 126 115
81 21 294 43 116
-174 -16 -252 -107 116
45 -9 -224 -59 116
122 12 46 13 117
-123 22 189 73 117
-29 -8 -341 -166 117
129 -9 -258 -42 118
-45 27 290 164 118
-102 32 245 113 118
192 9 -49 15 119
29 -1 -268 -96 119
-171 0 -126 -29 119
83 24 246 48 119
140 23 32 -24 120
-164 -1 -128 -82 120
15 -5 36 -9 120
146 17 91 70 121
-109 -4 -160 -48 121
-62 11 -6 37 121
182 17 75 -19 121
-90 0 126 4 122
-123 0 94 30 122
158 21 -35 -12 122
81 37 -16 64 123
-124 2 -88 -14 123
94 -4 -187 -42 123
86 -32 -191 -88 123
-141 15 -15 2 123
18 -6 31 63 124
185 24 -13 5 124
-119 -6 -169 -69 124
-93 15 287 83 124
166 24 155 57 125
-24 -6 -169 -52 125
-128 18 142 96 125
159 39 21 18 125
56 41 164 101 125
-166 0 -135 -83 126
88 -6 -56 -46 126
140 19 89 57 126
-164 1 -117 -9 126
13 20 -128 -29 126
157 7 -271 -125 126
-83 2 26 13 127
-100 31 222 42 127
149 16 110 59 127
7 29 81 17 127
-158 -10 -178 -80 127
117 -17 -269 -42 127
27 -20 -62 43 127
-113 56 340 126 127
25 -14 9 -16 128
153 44 108 22 128
-103 22 -133 38 128
-47 11 -40 18 128
175 24 227 88 128
-44 13 52 7 128
-119 0 -136 -46 128
136 -5 -146 -17 128
17 -10 -104 -57 128
-150 6 107 53 128
95 28 24 65 128
118 24 -71 29 128
-147 21 10 -13 128
23 15 198 43 128
148 29 51 20 128
-97 17 61 48 128
-63 -2 -48 4 128
148 4 -28 -12 128
-17 26 80 56 128
-104 25 -30 19 128
151 9 -149 -15 128
33 11 99 28 128
-159 9 27 -17 128
80 27 54 -11 128
126 15 -31 14 128
-157 13 -35 19 128
-26 6 -11 7 128
152 9 -101 -22 128
-58 28 47 33 128
-63 26 77 9 128
202 36 97 39 127
16 24 -130 -58 127
-120 27 -15 34 127
111 18 -20 -12 127
84 32 144 60 127
-155 12 -12 12 127
46 -3 -110 -42 127
123 0 -7 -4 126
-133 4 -18 -11 126
-22 15 87 44 126
163 19 -9 -2 126
-72 10 -59 7 126
-80 14 -33 6 125
155 7 12 -7 125
15 15 6 0 125
-157 15 60 9 125
79 1 -22 -23 124
88 18 37 24 124
-128 14 8 -5 124
40 20 -80 -5 124
154 13 -89 -14 124
-100 30 66 33 123
-62 21 27 24 123
178 17 -24 0 123
-14 20 -33 20 122
-112 4 27 38 122
144 13 -83 4 122
46 8 50 7 121
-164 5 57 10 121
76 20 183 46 121
97 16 70 4 120
-147 -1 -75 -33 120
-8 -7 -72 -30 120
160 16 13 12 120
-96 0 -34 -14 119
-105 3 -38 -4 119
151 6 -21 2 118
-9 19 -20 5 118
-146 0 -37 -1 118
144 12 6 36 117
45 18 -75 6 117
-182 -6 -33 -9 116
54 12 36 11 116
128 26 158 52 115
-130 44 122 59 115
-25 9 -16 -14 115
154 5 -148 -9 114
-70 12 0 24 114
-111 4 81 22 113
164 3 59 11 113
-5 6 13 -12 112
-152 3 -81 -18 112
122 17 -24 11 112
89 13 -14 1 111
-156 8 -54 -7 111
44 9 -31 0 110
152 13 -1 13 110
-110 17 -11 8 109
-38 7 -81 -21 109
199 22 -43 5 108
-33 24 -64 -2 108
-97 25 100 63 107
174 20 88 48 107
53 27 54 7 106
-148 11 43 25 106
94 8 -46 -23 105
94 -12 -26 -21 104
-179 -8 30 12 104
-7 -9 61 17 103
158 5 30 23 103
-107 -6 -49 -36 102
-70 -9 -65 -28 102
152 0 -30 -8 101
-71 7 -23 -14 101
-106 6 -30 -12 100
174 31 0 21 99
77 27 -18 10 99
-156 18 -65 -12 98
54 6 -64 -19 98
112 7 -40 3 97
-139 2 36 42 97
-11 -6 -54 -43 96
158 7 104 50 96
-106 0 11 -29 95
-95 3 70 1 94
164 13 101 36 94
-15 9 32 18 93
-146 11 -4 8 92
134 20 -51 -6 92
69 9 -60 -15 91
-212 1 -52 1 91
95 12 -24 4 90
154 18 -8 7 90
-100 14 -5 15 89
-15 6 -45 -18 89
149 13 -40 -13 88
-78 22 -7 7 87
-99 14 -55 -6 87
183 16 -64 -24 86
16 12 -6 7 86
-156 6 82 37 85
101 12 118 57 84
105 19 68 29 83
-145 17 17 11 83
40 22 5 6 82
169 11 -39 -9 81
-122 0 -15 1 81
-65 1 11 1 80
175 10 26 9 79
-46 6 -11 -3 79
-140 -3 -53 -27 78
133 1 -40 -8 77
34 2 -56 -22 77
-172 -10 -123 -24 76
86 9 -113 -16 75
134 14 36 17 74
-156 2 80 2 74
25 8 80 1 73
167 11 5 -3 72
-97 4 -23 -21 71
-77 5 100 55 71
205 24 33 20 70
-24 12 -10 6 69
-149 1 32 21 68
137 13 21 15 67
71 22 -5 19 67
-153 16 -59 -13 66
76 24 -24 5 65
148 24 8 23 65
-124 26 -19 3 64
-9 24 -65 -8 63
178 20 -12 18 62
-59 42 1 24 62
-104 5 -64 -18 61
220 38 -60 22 60
3 14 23 20 60
-144 19 80 24 59
132 19 99 27 58
58 -15 -2 -16 57
-140 16 41 7 57
64 26 78 27 56
158 25 33 25 55
-123 9 -40 -5 54
-66 -14 -50 -16 54
135 -2 -22 0 53
-110 -24 -71 -22 52
-140 -16 -97 -24 51
135 8 -38 14 50
11 14 -2 8 50
-166 1 44 0 49
93 -2 42 10 48
79 4 -2 -2 47
-145 11 -71 3 47
20 3 -67 0 46
161 6 22 18 45
-72 36 102 30 44
25 71 53 49 43
250 78 24 63 43
65 90 90 101 42
-35 88 154 83 41
218 63 123 83 40
50 16 -20 10 39
-168 -22 -55 -24 39
30 -49 -68 -52 38
12 -74 -74 -85 37
-206 -39 -52 -49 36
-68 -42 -93 -51 36
135 17 -22 3 35
-100 5 -32 -2 34
-91 5 -33 -7 34
125 -17 -33 -13 33
-2 25 -1 13 32
-134 16 -15 -3 32
124 16 -6 21 31
66 2 -10 0 30
-191 -15 -30 -19 30
59 10 -7 2 29
119 -5 -19 -4 29
-142 -3 -17 0 28
-38 -5 -15 -17 27
139 -12 -23 -23 27
-88 -4 -25 -12 26
-139 -29 -35 -17 26
151 -1 -14 -3 25
28 24 -7 4 24
-156 -5 -16 -4 24
102 5 -4 -2 23
80 0 -10 8 23
-164 -8 -12 -1 22
12 -10 -16 -13 22
138 3 -17 -6 21
-87 32 6 20 21
-17 44 46 63 20
198 47 14 18 20
-45 10 -11 -3 19
-104 16 -20 -39 19
136 4 -23 -23 18
53 43 54 67 18
-177 -10 -24 9 17
84 0 -29 4 17
101 17 26 63 16
-172 -20 -55 -26 16
-5 -11 -29 -7 15
136 -5 -51 -42 15
-96 18 14 12 15
-94 -16 8 13 14
173 22 -5 2 14
-19 18 13 12 13
-135 6 4 3 13
117 0 -13 -13 13
68 13 29 24 13
-158 12 4 0 12
76 18 -5 10 12
126 6 -21 -16 12
-141 6 -34 -7 12
-35 4 -19 2 11
178 23 0 23 11
-83 8 -23 -13 11
-79 14 30 16 11
167 34 38 49 10
39 51 12 8 10
-133 26 -43 -23 10
135 34 15 22 10
85 27 4 31 9
-163 1 -23 -13 9
45 8 -21 -8 9
154 22 3 12 9
-126 9 1 3 8
-39 1 -6 20 8
169 17 -2 2 8
-81 -3 -12 -5 7
-115 2 -11 -4 7
159 11 -5 -7 7
7 0 4 8 7
-122 35 -14 -15 6
108 16 3 19 6
103 10 -44 -30 6
-128 23 37 13 6
19 -8 -24 -59 5
143 7 36 50 5
-101 14 -66 3 5
-28 32 -2 53 5
172 16 -29 13 5
-24 34 0 15 4
-112 7 11 13 4
152 19 8 17 4
55 21 17 16 4
-163 4 -3 -8 3
93 19 9 12 3
113 20 11 20 3
-136 20 10 8 3
2 15 1 0 2
165 2 -10 -10 2
-98 9 -7 3 2
-106 -18 -23 -50 2
219 39 37 36 2
-2 19 -9 12 1
-133 15 -12 -14 1
124 -8 -64 -18 1
57 4 9 20 1
-180 2 22 58 1
38 -14 -1 44 1
125 -1 -62 -11 1
-154 8 -22 -9 1
-17 22 16 18 1
183 21 32 20 0
-92 -4 -12 -4 0
-95 12 1 8 0
161 9 5 7 0
2 4 -1 1 0
-163 -8 -22 -25 0
96 -9 -17 -5 0
52 -22 -40 -37 0
-131 27 5 3 0
46 12 -20 -25 0
175 45 9 18 0
-119 5 -27 -9 0
-49 10 -31 -47 0
178 14 0 -18 0
-55 5 -28 9 0
-141 -12 -17 1 0
176 23 -19 24 0
43 25 -14 6 0
-167 3 -5 5 0
120 19 7 17 0
105 15 4 -6 0
-159 -3 -2 -2 0
-1 1 0 2 0
172 20 1 14 0
-102 13 -9 3 0
-61 12 -10 9 0
192 17 10 17 0
-39 -5 -18 -6 0
-123 16 -4 14 0
132 4 4 7 0
88 31 31 26 0
-162 2 1 2 0
45 -18 -19 -8 0
151 17 9 17 0
-141 32 -2 2 0
-4 10 8 12 0
167 11 -7 15 0
-93 12 -11 16 0
-89 15 -8 8 0
168 10 -2 5 0
-32 -14 -20 -9 0
-162 -12 -26 -15 0
135 18 -4 5 0
64 3 -10 -4 0
-176 -8 -18 -4 0
55 1 -9 -1 1
123 0 -23 0 1
-116 25 -21 4 1
-28 1 -43 -9 1
176 20 -64 15 2
-26 53 -41 30 2
-74 35 -12 39 2
183 31 61 39 3
15 15 110 42 3
-138 12 103 5 3
104 10 42 2 4
91 4 -26 -4 4
-147 7 -32 -3 4
15 5 2 -6 5
142 9 82 18 5
-102 20 71 22 5
-64 9 14 13 6
169 18 -25 0 6
-49 0 -45 -11 6
-109 11 -53 -18 7
150 25 -58 1 7
72 46 -67 -1 8
-134 18 -96 -8 8
103 17 -112 -46 8
118 20 -44 -4 9
-149 7 4 4 9
-6 13 93 42 9
144 19 206 102 10
-98 21 103 34 10
-72 12 46 13 10
162 11 -42 -17 11
-20 13 -21 9 11
-132 4 27 10 12
143 5 25 26 12
64 7 -19 2 12
-151 -2 -120 -47 13
57 -2 -116 -36 13
133 13 -47 -14 14
-102 30 32 62 14
15 53 -15 62 15
188 31 4 18 15
-92 -3 -20 7 16
-121 -16 6 -24 16
131 -20 -44 -29 17
-6 -8 -45 -28 17
-141 4 100 47 18
117 17 -9 0 18
95 20 -93 -27 19
-146 4 -197 -39 19
21 -9 60 22 20
127 1 215 46 20
-143 6 162 20 21
-47 11 2 -18 21
158 6 -57 -18 22
-73 -8 -53 -2 22
-143 -18 -86 -18 23
114 -8 -52 -17 23
34 17 57 56 24
-125 23 43 20 24
121 32 -58 6 25
140 34 -118 -18 26
-145 16 -5 11 26
3 -1 118 0 27
139 7 128 17 28
-131 -12 3 -20 28
-76 -2 -71 -19 29
146 3 -57 -3 29
-46 4 -5 9 30
-130 5 -78 -25 31
131 12 -24 18 31
60 22 -118 -24 32
-134 16 -166 -33 32
86 22 -69 42 33
128 30 184 68 34
-129 32 230 47 34
-15 14 63 7 35
163 17 -140 -24 35
-81 7 -149 -24 36
-98 -1 31 -4 37
109 -22 93 -10 37
-3 -10 95 -12 38
-159 -10 97 41 38
146 16 -35 29 39
118 36 -125 1 39
-151 31 -119 16 40
55 23 108 67 41
145 19 161 49 41
-121 12 36 -5 42
-29 23 -56 -19 42
182 36 -67 -2 43
-43 29 -52 -3 44
-84 32 -68 16 44
176 26 2 26 45
11 12 44 21 46
-156 -2 -131 -40 46
112 13 -162 -13 47
101 25 74 30 47
-141 27 303 74 48
64 29 95 25 49
154 23 -98 3 49
-95 20 -99 -24 50
-29 14 119 39 50
178 4 24 -1 51
-24 -1 -33 -16 52
-98 -14 -45 -21 52
135 -9 68 26 53
-11 6 -139 -22 53
-189 11 -209 -36 54
63 13 -82 -52 55
106 24 154 28 55
-133 19 162 18 56
10 16 53 39 56
148 22 -167 -24 57
-112 15 -129 -18 58
-81 8 63 1 58
154 8 119 38 59
-33 20 -30 28 59
-142 -2 -94 -33 60
121 -3 -64 -58 61
48 -7 80 -30 61
-175 -18 5 -24 62
51 -7 -80 -1 62
141 28 25 -2 63
-116 16 149 85 64
3 27 -32 0 64
164 15 -217 -48 65
-91 12 -149 -42 65
-94 16 78 1 66
148 3 21 7 67
-21 4 116 14 67
-144 10 156 42 68
110 9 66 28 68
85 22 -107 -11 69
-122 32 -101 3 70
67 37 103 48 70
173 49 95 46 71
-94 29 -105 -10 71
-34 4 -123 -24 72
183 34 -42 21 73
-76 22 0 28 73
-98 15 -160 -93 74
157 -2 87 15 74
9 -7 255 63 75
-161 -15 -81 10 76
83 -17 -201 -61 76
69 -9 3 -30 77
-168 0 223 46 77
2 -2 53 -34 78
146 -5 -284 -76 79
-126 -8 -129 -67 79
-77 14 184 83 80
159 27 113 56 80
-76 6 -52 -28 81
-69 27 -24 -6 81
168 25 -80 -29 82
62 39 23 59 83
-114 21 -67 -5 83
71 15 -17 47 84
96 -6 -59 -28 84
-153 -9 -15 -4 85
-16 0 37 -4 85
162 31 46 23 86
-89 24 -22 -2 86
-86 -2 68 -18 87
164 11 182 18 88
-18 18 -30 4 88
-135 2 -170 -46 89
130 4 -109 -60 89
-7 -1 113 63 90
-151 -2 66 -8 90
52 -9 -72 12 91
139 -3 -86 -24 91
-125 2 5 -4 92
-37 2 -186 -50 92
155 20 -250 -62 93
-68 37 72 26 93
-48 40 166 91 94
143 25 279 134 94
23 23 -40 10 95
-180 -34 -233 -119 95
96 -11 148 19 96
73 -3 163 20 97
-163 1 90 46 97
56 2 -74 -23 98
158 8 -51 -11 98
-118 16 -67 4 99
-73 23 -64 21 99
190 26 -25 3 100
-23 26 108 55 100
-119 22 -18 -16 101
170 -7 -262 -98 101
32 5 56 29 102
-167 17 242 64 102
111 20 47 9 103
151 42 -220 -48 103
-132 39 -21 77 104
17 29 320 133 104
182 26 93 6 105
-83 5 -322 -98 105
-61 15 -169 40 106
159 15 90 53 106
-1 19 284 60 107
-120 6 -156 -80 107
131 8 -127 -26 108
57 20 170 137 108
-173 1 104 59 109
50 -7 85 -7 109
117 -5 -45 -24 110
-183 -20 -200 -38 110
-13 -11 -317 -73 111
169 -11 -17 -68 111
-67 19 183 -16 111
-71 7 288 35 112
197 32 122 83 112
5 20 -201 0 113
-172 -10 -155 -15 113
150 24 45 36 113
78 13 8 -2 114
-141 19 192 38 114
35 -19 -327 -82 115
131 -12 -414 -64 115
-122 39 294 90 115
-39 31 307 70 116
146 19 78 0 116
-50 8 -183 -30 117
-159 12 96 24 117
155 37 251 60 117
35 9 71 -2 118
-178 -36 -697 -151 118
68 10 2 17 118
93 45 375 165 119
-152 32 315 62 119
35 19 50 9 119
142 -19 -476 -119 120
-125 2 -216 -47 120
-40 39 228 137 120
186 11 253 91 120
-36 9 -89 -3 121
-100 -17 -496 -152 121
185 8 -224 -67 121
38 43 470 105 122
-141 36 398 82 122
103 7 -7 -24 122
95 -19 -302 -102 123
-151 9 112 73 123
-3 5 196 36 123
173 25 14 22 123
-85 -18 -371 -102 123
-93 -11 -152 60 124
180 36 231 47 124
9 43 243 47 124
-127 34 221 60 124
139 -3 -209 -44 125
27 -36 -375 -108 125
-140 -2 -14 43 125
38 -7 226 5 125
160 -3 60 -59 125
-169 -41 -54 -71 126
-1 -17 -177 -7 126
180 40 180 152 126
-73 43 240 57 126
-63 31 -119 -4 126
120 -22 -269 -87 126
-37 6 30 12 126
-123 6 154 36 127
103 15 132 -24 127
78 -18 -220 -107 127
-194 -28 -186 -17 127
-37 -27 -6 -57 127
166 17 141 100 127
-111 9 -49 14 127
-47 -10 -250 -19 127
168 -4 -174 -73 127
-68 21 88 -17 127
-96 27 145 23 128
179 11 -146 -29 128
30 23 130 136 128
-166 25 193 22 128
84 26 157 25 128
114 15 -116 -63 128
-158 12 -162 -9 128
44 25 -9 22 128
170 35 94 51 128
-103 10 -44 8 128
-66 -8 -91 -47 128
192 18 -108 -9 128
-37 22 -25 -4 128
-119 2 -59 -49 128
142 -6 72 47 128
49 24 166 44 128
-157 24 83 69 128
97 24 -7 22 128
125 16 -12 11 128
-148 9 -15 -1 128
-17 -11 -79 -32 128
169 6 -90 -16 128
-83 11 43 31 128
-84 4 15 -21 128
174 9 31 -4 128
-13 18 -135 3 128
-148 6 -177 -26 128
157 24 18 3 128
78 13 72 -5 128
-145 16 111 9 128
71 22 7 20 128
146 30 -72 -1 128
-140 8 -60 -16 128
-20 11 5 16 128
181 17 -7 11 128
-71 13 42 28 128
-96 21 1 31 128
164 1 -88 -16 127
24 14 -34 -15 127
-127 22 55 15 127
112 13 24 23 127
95 30 18 19 127
-144 10 -35 2 127
13 5 -31 -4 127
158 21 -38 9 126
-120 6 0 -6 126
-58 1 -98 -31 126
126 10 62 13 126
-6 28 71 49 126
-125 13 1 -14 126
190 36 29 30 125
53 20 -41 -10 125
-167 17 36 29 125
93 12 66 15 125
114 16 -22 -14 124
-157 9 48 24 124
6 5 -23 -9 124
150 7 -44 -10 124
-108 13 -10 5 124
-74 2 -30 -7 123
152 10 -28 -5 123
-24 18 4 17 123
-134 2 -58 0 123
144 7 -12 9 122
59 19 24 16 122
-135 16 -19 -8 122
78 18 -30 2 121
156 26 10 31 121
-140 21 -12 19 121
-13 5 9 -25 120
169 4 24 -16 120
-97 2 74 10 119
-108 6 64 33 119
172 19 39 49 119
-6 20 -46 -19 118
-153 8 -19 -12 118
112 17 -37 0 117
53 22 -65 -4 117
-130 21 -10 -1 116
65 27 20 21 116
184 36 15 12 116
-127 27 -44 -3 115
-53 15 -13 28 115
170 15 18 35 114
-66 4 -27 5 114
-114 0 -51 -18 113
140 -13 -35 -17 113
-11 -9 51 15 112
-166 10 74 18 112
90 7 37 12 111
108 20 -18 14 111
-150 9 -35 -6 110
40 6 -28 2 109
177 20 80 30 109
-115 6 63 18 108
-56 -4 42 10 108
174 -5 -61 -22 107
-41 -18 -116 -63 107
-155 -12 -69 -27 106
148 -14 9 8 105
18 -12 30 7 105
-174 -14 4 -8 104
96 1 -139 -71 104
108 7 -66 2 103
-159 21 92 54 103
18 24 126 65 102
188 37 106 74 101
-79 29 -27 11 101
-64 14 -76 -23 100
180 11 -41 -2 100
-33 4 8 17 99
-146 1 44 32 99
136 16 44 25 98
72 17 -26 -2 97
-148 13 -47 -13 97
77 17 -31 6 96
129 10 2 -2 96
-173 -16 -24 -19 95
-40 -15 -36 -24 95
158 5 9 1 94
-94 12 28 15 94
-130 3 -44 -46 93
144 -4 -15 -10 92
28 16 47 52 92
-138 18 19 25 91
185 29 22 45 91
101 16 -46 -15 90
-174 4 -18 -6 89
42 4 -4 12 89
149 11 -31 -10 88
-139 0 -80 -33 87
-72 -19 -51 -22 87
147 -11 54 1 86
-89 -1 117 64 85
-119 17 43 24 84
175 27 -34 28 84
53 32 -17 19 83
-157 20 36 15 82
115 19 74 22 81
108 24 22 8 81
-136 25 -6 8 80
23 28 -6 2 79
168 18 -7 3 79
-82 1 -34 -11 78
-52 11 -41 2 77
196 21 -27 16 77
-10 35 -14 18 76
-125 18 -72 -12 75
131 5 -37 9 74
61 17 3 23 74
-177 0 97 52 73
83 5 47 21 72
112 -12 -64 -35 71
-169 -19 -33 -21 70
-36 -17 101 15 70
155 2 112 13 69
-95 4 29 -5 68
-71 22 -49 1 68
188 22 -33 6 67
0 23 -7 9 66
-142 2 -45 -13 66
135 15 -31 -1 65
92 38 4 32 64
-127 40 18 37 64
115 53 14 64 63
160 36 0 19 62
-140 -6 -30 -17 62
-24 6 -22 1 61
171 9 27 15 60
-74 16 -27 -13 60
-102 12 -30 4 59
142 4 -28 -9 58
-7 11 -12 20 58
-171 -11 -110 -28 57
94 -19 -104 -46 56
69 -6 68 19 55
-193 -12 172 14 55
-6 -17 135 12 54
106 -5 5 -3 53
-127 12 -7 13 53
-44 21 15 28 52
197 43 3 30 51
-19 52 -25 28 51
-108 22 -33 4 50
150 3 -47 -10 50
6 -25 -69 -40 49
-187 -20 -61 -35 49
71 -14 -45 -22 48
90 -24 -55 -21 48
-164 -10 -33 -17 47
2 -8 -25 -13 47
127 -22 -32 -27 46
-101 -1 -22 -11 46
-80 -9 -18 -11 45
181 20 -6 7 45
-9 14 5 21 44
-116 40 6 24 44
159 30 20 33 44
63 26 -4 12 43
-135 22 -1 22 42
89 32 11 20 42
129 10 21 23 41
-142 9 20 6 41
-30 8 10 2 40
176 29 23 23 40
-87 23 11 23 39
-66 44 30 45 38
139 -2 -16 -9 38
-37 -3 -61 -30 37
-169 -6 -55 -16 36
119 13 16 34 36
91 33 80 52 35
-127 32 81 39 34
58 22 34 1 33
148 12 -16 0 33
-129 -7 -36 -23 32
-40 -7 -36 -18 31
183 15 -20 4 31
-57 12 -24 -4 30
-56 23 7 27 29
165 24 -16 2 29
21 10 -17 0 28
-151 -11 -36 -22 27
91 0 -17 -1 27
99 31 1 8 26
-134 15 8 21 26
21 3 -7 4 25
136 2 -4 -2 24
-106 7 6 17 24
-47 17 -15 -12 23
163 5 -6 -2 23
-78 -18 -13 -5 22
-110 18 9 17 22
146 24 14 22 21
48 19 -16 9 21
-160 -9 -40 -17 20
34 -30 -47 -18 20
87 3 -20 -10 20
-139 12 3 7 19
15 24 9 17 19
171 36 42 46 18
-88 24 15 24 18
-71 14 0 -14 17
156 15 28 29 17
-18 14 -16 -19 17
-137 9 4 24 16
121 -4 -41 -25 16
49 -3 -19 -1 16
-171 -5 -21 -17 16
46 2 -2 -4 15
124 3 -2 1 15
-144 -2 -25 -20 15
-44 -1 -22 -8 15
192 39 13 20 14
-83 10 -6 -6 14
-78 39 28 34 14
171 33 4 20 14
29 36 5 15 14
-142 9 -7 -39 14
137 37 88 85 13
76 6 -61 -29 13
-162 32 9 50 13
27 -5 -64 -40 13
144 0 -18 -17 13
-130 10 15 12 13
-58 0 -42 -26 12
175 18 4 10 12
-34 39 -1 1 12
-75 44 32 44 12
171 31 14 25 12
40 21 28 30 11
-136 19 -2 8 11
87 -7 -12 -13 11
94 10 -12 -13 10
-180 -31 -36 -44 10
-1 -10 -22 -15 10
152 11 -17 -6 10
-97 15 -27 -19 9
-75 -12 -49 -47 9
151 -2 -16 -5 9
-49 13 -44 10 9
-131 6 -23 6 8
127 -4 -23 -1 8
49 18 -4 0 8
-158 8 5 7 8
86 13 7 25 7
130 22 -2 0 7
-122 17 24 33 7
7 20 7 12 7
175 14 8 15 6
-55 44 15 8 6
-45 40 51 56 6
195 32 15 24 6
-5 6 -36 -22 6
-139 7 -4 -5 5
174 59 56 58 5
75 17 15 15 5
-140 32 1 7 5
51 0 -38 -5 5
150 43 38 73 4
-125 21 -2 23 4
-15 19 -3 13 4
159 7 -16 -6 4
-66 18 24 23 4
-98 9 11 0 4
197 38 32 33 3
25 18 7 16 3
-153 18 -4 0 3
103 -4 -24 -25 3
76 -5 -16 -8 3
-156 16 0 -6 3
3 -17 -24 -25 2
136 0 -24 -15 2
-122 2 9 8 2
-55 16 -7 -7 2
174 21 3 -15 2
-41 13 46 65 2
-113 14 21 75 2
150 17 -45 21 2
43 22 -13 32 1
-170 -6 -36 -16 1
88 13 3 -7 1
110 12 17 23 1
-129 36 17 25 1
-13 -12 -23 -19 1
136 -9 -1 -3 1
-128 -15 -30 -25 0
-72 1 -5 -6 0
168 5 -5 0 0
-20 17 11 9 0
-150 -15 -19 -5 0
154 36 -2 8 0
55 6 -8 -6 0
-184 -9 -30 -45 0
46 -23 11 16 0
108 -15 -48 -51 0
-143 10 -13 -52 0
34 50 35 26 0
189 38 15 99 0
-100 16 -17 44 0
-91 8 -30 -19 0
184 27 95 94 0
0 22 11 18 0
-148 13 -21 24 0
131 13 -22 -8 0
75 8 13 1 0
-169 5 5 22 0
49 5 -1 -4 0
140 5 7 -1 0
-133 8 8 7 0
-32 8 -10 -5 0
178 23 5 10 0
-65 -2 -10 -4 0
-88 31 8 25 0
158 15 -5 8 0
31 24 7 18 0
-151 5 -13 0 0
105 10 0 12 0
60 -13 -17 -7 0
-155 8 -20 -25 0
14 -3 -13 0 0
180 36 9 15 0
-119 -4 -33 -26 0
-58 11 -18 24 0
162 3 -11 10 0
-39 7 -17 12 0
-136 4 -6 -8 0
129 -5 -14 -9 0
71 37 -29 12 0
-157 13 -51 -12 0
75 9 -66 -11 0
133 19 -27 15 0
-161 -6 42 13 0
8 8 89 18 0
191 31 78 16 0
-92 17 19 -3 0
-74 16 -34 0 0
170 12 3 23 0
-19 14 37 7 1
-139 10 46 12 1
147 23 -24 -2 1
82 23 -63 7 1
-150 20 -76 14 1
65 17 -15 30 1
158 35 15 23 1
-115 25 3 0 2
-7 27 -58 -24 2
174 9 -6 -6 2
-96 -8 65 0 2
-138 -16 143 22 3
136 -4 108 38 3
0 1 43 31 3
-147 13 -40 22 3
121 16 -38 -4 4
92 7 -82 -29 4
-167 -11 -64 -18 4
16 -11 -40 -18 5
133 -2 -59 -10 5
-127 4 -115 -39 6
-31 7 -170 -32 6
161 8 -68 12 7
-54 12 40 18 7
-128 5 173 84 7
154 16 160 28 8
31 23 69 28 8
-152 3 3 -23 9
95 4 0 -10 9
108 20 -16 3 10
-126 30 -107 -9 11
42 48 -197 -5 11
170 27 -55 31 12
-95 22 162 56 12
-64 18 206 46 13
169 6 -30 -23 13
-12 19 -132 8 14
-109 27 -5 6 15
145 33 235 104 15
46 21 163 52 16
-147 10 -42 -24 17
57 -12 -154 -55 17
102 2 -95 -28 18
-145 -13 -101 -27 19
-32 -8 -124 -23 20
160 17 -118 -30 20
-98 3 45 50 21
-95 8 45 47 22
151 4 42 25 23
16 24 14 0 23
-103 19 -2 -9 24
150 41 107 3 25
60 13 92 22 26
-168 -7 -83 -11 26
57 -5 -184 -8 27
134 3 -177 -33 28
-146 -4 112 18 29
-56 -3 197 12 30
128 -5 134 12 31
-89 -2 -70 -43 31
-121 -12 -175 -41 32
139 -8 -124 -29 33
9 18 23 14 34
-136 29 234 98 35
103 17 186 52 36
86 4 6 -8 37
-156 8 -192 -66 38
33 18 -224 -47 39
187 45 -132 40 39
-94 28 2 34 40
-14 48 124 96 41
175 36 -34 32 42
-66 23 -31 17 43
-105 8 21 -20 44
154 6 87 -28 45
68 41 168 50 46
-112 40 95 66 46
103 41 54 64 47
126 37 5 48 48
-121 32 -51 -12 49
19 3 -1 1 50
170 22 29 39 51
-110 0 -70 -11 52
-98 -16 -117 -32 52
141 -16 -31 -28 53
-40 -10 -49 -62 54
-108 -31 -93 -56 55
152 -12 -20 -44 56
76 -9 115 57 57
-170 -3 -72 8 57
25 -3 -354 -53 58
88 14 -3 22 59
-166 17 373 89 60
-54 24 333 64 60
146 19 -108 -31 61
-98 5 -293 -88 62
-118 4 -28 -3 63
137 12 127 46 64
0 15 30 43 65
-150 14 -179 -31 65
104 7 -122 -4 66
100 17 109 3 67
-156 11 233 94 68
45 14 108 53 68
152 -4 -86 -44 69
-132 -10 -175 -78 70
-39 1 -3 -23 71
170 12 -1 47 72
-45 25 -72 5 72
-104 19 100 60 73
169 29 -150 -46 74
17 5 -66 29 75
-141 20 137 32 76
104 24 69 34 76
97 14 -23 5 77
-153 2 -320 -133 78
32 17 110 54 79
168 41 432 185 80
-82 25 32 47 80
-94 -10 -159 -17 81
179 3 -8 -50 82
-29 -11 -137 -108 83
-129 -23 -69 -45 83
156 5 -99 -16 84
23 17 -150 -11 85
-187 18 -13 1 86
81 19 81 34 86
113 9 235 76 87
-147 11 34 46 88
-17 11 -150 -7 89
195 23 -129 -23 89
-66 21 133 17 90
-72 6 -76 -43 91
157 -11 -226 -69 91
-60 2 125 26 92
-119 20 381 124 93
132 -17 100 -24 94
82 4 -119 -38 94
-145 1 -137 32 95
63 20 -177 -16 96
168 60 131 111 96
-110 45 92 62 97
0 48 30 9 98
173 12 -24 14 98
-104 -12 -279 -70 99
-145 -11 -6 -43 99
176 35 323 115 100
31 25 141 86 101
-126 17 -127 32 101
151 20 -282 -112 102
81 6 1 -3 102
-188 -1 78 -22 103
48 1 -231 -44 104
123 -6 -142 -56 104
-125 23 418 91 105
-17 26 446 128 105
197 18 85 31 106
-23 24 -287 -58 107
-109 6 -241 -18 107
182 48 -15 59 108
44 31 103 48 108
-120 27 -51 -14 109
81 0 26 14 109
42 -1 13 23 110
-177 -46 -50 10 110
4 -1 121 26 111
152 -20 -181 -76 111
-110 -13 -235 -86 112
-114 -27 -36 -37 112
164 15 279 123 113
-28 4 92 36 113
-122 12 -254 -74 114
135 -5 -118 -73 114
80 40 274 63 114
-147 19 79 36 115
115 39 -42 53 115
120 6 -201 -72 116
-144 21 23 -43 116
-33 3 152 5 117
167 37 134 40 117
-136 -6 -148 -23 117
-130 -13 -177 -17 118
145 -21 -88 -50 118
13 -12 -156 -35 118
-187 -36 -108 -48 119
150 5 155 12 119
43 19 88 77 119
-175 39 130 93 120
59 0 -194 -28 120
117 -28 -214 -154 120
-148 21 263 98 121
-95 32 214 95 121
235 48 19 93 121
-22 20 -226 -4 122
-82 -2 -6 0 122
205 16 150 10 122
-1 27 106 27 122
-104 24 -45 -30 123
127 -17 -307 -48 123
99 -16 -31 -55 123
-176 -6 55 2 123
41 28 272 73 124
176 32 152 98 124
-83 -8 -317 -58 124
-37 -9 -202 -33 124
113 -13 -144 -84 124
-38 22 164 69 125
-127 -9 46 -47 125
154 13 -18 39 125
46 38 102 61 125
-166 22 0 36 125
134 37 42 62 126
104 -12 -308 -82 126
-160 -2 -169 -73 126
33 9 68 29 126
170 14 29 -13 126
-106 4 124 53 126
-71 30 236 59 126
123 -15 -94 -10 127
-16 17 9 -21 127
-92 21 -130 -28 127
111 16 -202 -40 127
106 43 282 74 127
-148 -4 -29 13 127
11 -40 -586 -185 127
161 8 -39 -37 128
-126 34 437 180 128
-22 57 626 129 128
189 60 240 122 128
-92 -47 -533 -147 128
-101 -8 -138 -74 128
152 20 139 40 128
11 7 -218 -63 128
-151 -3 -146 -34 128
90 1 17 57 128
50 10 163 70 128
-153 29 88 75 129
59 -11 -135 -40 129
179 31 116 45 129
-126 20 124 15 129
-12 12 161 21 129
170 -25 -373 -107 129
-57 18 -240 -29 129
-118 -1 34 -75 129
144 28 271 102 129
29 30 185 78 129
-144 -1 -263 -57 129
100 6 -107 -7 129
117 12 -89 -7 129
-148 14 48 56 129
45 48 301 120 129
172 26 -31 -19 129
-105 19 32 -26 129
-61 0 -75 20 129
154 -8 -203 -23 129
-28 39 306 123 129
-134 1 -34 -50 129
162 38 90 39 129
34 -14 -166 -54 129
-154 4 -7 -17 129
79 15 39 27 129
116 22 -109 6 129
-151 -15 -338 -79 129
0 -9 25 -7 129
144 41 392 118 129
-52 35 269 51 129
-69 27 -50 -11 129
194 12 -154 -1 129
-13 6 -87 -17 129
-155 15 -15 10 129
132 28 -47 21 129
77 40 37 56 129
-162 8 -147 -19 129
58 10 -68 -24 129
140 15 37 14 129
-129 24 151 43 129
-27 14 87 28 129
171 23 -191 -79 129
-59 14 -58 2 129
-72 16 -36 -11 129
151 24 88 83 129
24 28 24 8 129
-168 -9 2 -30 129
122 21 70 6 129
116 23 35 17 129
-141 14 -41 8 128
48 17 -19 8 128
159 21 -47 -8 128
-116 7 -35 0 128
-31 19 15 -2 128
195 27 34 19 128
-46 20 41 25 128
-116 8 0 7 128
156 12 -148 -21 128
32 17 -58 -11 127
-170 11 39 10 127
82 18 52 1 127
99 15 45 6 127
-128 35 -84 9 127
31 10 -58 25 126
188 29 100 49 126
-111 13 42 10 126
-89 0 71 -18 126
157 -5 -24 -23 126
-46 -6 -49 -11 125
-158 8 -15 1 125
125 3 -14 -19 125
48 -2 -30 -19 124
-172 -7 -79 -40 124
40 -8 -97 -44 124
141 22 52 51 123
-120 16 39 32 123
10 16 24 33 123
176 21 -97 -12 122
-100 7 -69 -1 122
-145 -10 113 2 122
136 7 69 9 121
-35 6 63 25 121
-178 3 -57 -5 120
132 6 -69 -19 120
51 14 -13 3 120
-155 12 17 16 119
68 10 9 1 119
152 15 33 5 118
-130 9 -97 -24 118
-52 1 -102 -33 117
152 15 20 21 117
-56 23 85 73 116
-81 21 33 16 116
201 34 2 4 115
49 8 -100 -34 115
-139 15 34 15 114
124 25 92 51 113
126 21 57 8 113
-139 22 25 20 112
41 17 6 30 112
153 23 0 16 111
-121 16 10 16 111
-68 -3 -136 -35 110
186 8 -25 -7 110
-23 7 66 32 109
-133 -16 30 8 108
143 -9 0 5 108
32 -4 -34 -13 107
-185 -4 -52 -34 107
114 6 -128 -39 106
120 8 -113 -3 106
-163 9 129 34 105
1 15 106 27 104
167 11 59 9 104
-117 6 -74 -33 103
-75 -8 -75 -19 102
154 6 -30 -33 102
-21 15 48 31 101
-132 33 47 31 101
151 27 42 23 100
60 31 4 11 99
-164 18 -29 3 99
58 15 -32 8 98
135 24 -34 -2 98
-138 4 -35 -12 97
-25 4 5 0 96
191 6 -1 -4 96
-121 -5 -95 -35 95
-97 -6 -73 -23 95
153 0 31 27 94
4 13 76 39 93
-155 8 18 -18 93
124 14 26 14 92
86 19 11 16 91
-154 8 -10 17 91
23 -5 -68 1 90
131 -8 -65 -4 89
-142 -2 55 3 89
-56 -4 25 -28 88
206 12 30 -2 87
-28 10 -36 5 87
-121 5 -17 11 86
147 6 -80 -15 85
61 13 -76 -14 85
-168 8 -41 -6 84
104 10 53 8 83
125 22 92 38 83
-161 25 30 38 82
22 21 -42 0 81
156 18 -41 -26 81
-130 14 37 35 80
-82 20 -5 32 79
161 15 31 44 79
-37 5 23 -2 78
-146 0 34 -22 77
136 10 17 15 77
62 8 -44 3 76
-135 17 -44 -2 75
78 21 -18 6 75
135 34 -83 10 74
-156 20 -149 -14 73
32 14 18 28 73
162 9 148 49 72
-88 11 188 58 71
-72 14 110 51 71
189 31 -8 13 70
29 49 -3 13 70
-100 41 7 35 69
148 23 -22 3 68
75 4 -25 -11 68
-172 -19 -54 -29 67
32 -17 -103 -33 67
107 -22 -93 -33 66
-164 -29 -15 -17 66
-52 -31 25 -36 65
162 -18 -59 -34 64
-129 -29 -155 -39 64
-87 -12 -8 -10 63
170 -7 111 18 63
30 8 46 -6 62
-127 -5 -112 -49 62
85 4 -63 -8 61
54 15 154 60 60
-177 12 117 32 60
60 42 88 68 59
195 66 -22 40 59
-54 74 -8 45 58
21 70 26 66 57
211 57 22 47 57
-7 77 38 58 56
-91 56 34 46 56
161 45 4 29 55
24 24 -15 12 55
-205 -14 -49 -21 54
10 -29 -96 -43 54
-27 -54 -166 -78 53
-278 -26 -162 -53 53
-147 -48 -55 -46 52
13 -38 58 -28 51
-208 -44 118 -27 51
-120 -20 75 -18 50
193 16 13 16 50
3 20 -1 9 49
-86 12 -34 8 49
132 4 -3 9 48
18 0 -3 -4 47
-187 0 -7 0 47
-81 -4 -25 -13 46
-150 7 -48 0 46
-52 8 -29 4 45
169 6 -35 -14 44
516 19 -21 9 44
275 10 -54 12 43
146 32 1 35 43
320 38 -14 25 42
212 62 -21 41 41
39 48 -3 44 41
206 11 12 18 40
189 12 106 19 40
-140 -38 44 -16 39
-20 -38 -18 -42 38
-16 -27 -15 -31 38
-251 -19 -22 -20 37
-166 -11 9 -25 36
-1 -4 -52 -39 36
-161 -2 -24 4 35
-197 13 -25 15 35
140 51 20 63 34
53 58 39 45 33
-150 24 24 22 33
75 10 -6 -3 32
103 17 -13 7 31
-148 0 -23 -7 31
19 12 -18 1 30
151 2 -13 8 30
-75 26 -1 17 29
-18 46 18 31 29
222 59 40 53 28
-6 50 27 38 27
-113 34 15 23 27
72 -3 -22 -9 26
19 28 4 20 26
-207 -5 -16 -7 25
50 21 -6 -7 25
83 -9 -18 -11 24
-184 -28 -51 -41 23
-4 5 2 3 23
163 16 2 14 22
-66 24 9 28 22
-60 18 11 25 21
174 6 -4 28 21
16 51 38 47 20
-80 54 32 43 20
139 10 -6 12 19
78 11 5 18 19
-152 -6 -26 -16 18
22 -15 -29 -17 17
141 18 23 24 17
-110 22 -7 2 17
-27 4 9 13 16
164 16 -19 -21 16
-78 8 9 21 15
-97 17 -6 -4 15
147 17 14 30 14
18 28 -8 26 14
-138 16 -23 -10 14
121 27 27 30 13
93 32 0 18 13
-157 13 7 25 12
31 10 -4 21 12
135 8 -17 -14 12
-129 -4 0 -2 11
-69 -8 -13 -9 11
138 -13 -26 -21 11
-82 -27 -31 -24 10
-165 -40 -46 -36 10
165 28 7 13 10
34 7 -9 -1 10
-156 -5 -21 -13 10
69 -12 -17 -16 9
70 -21 -23 -22 9
-164 -1 -29 -38 9
2 4 -2 -16 9
158 11 11 13 9
-98 13 -14 9 9
-71 8 -53 -24 9
172 22 -10 10 9
-22 13 -12 -29 8
-108 31 -2 -5 8
145 32 41 70 8
64 34 -12 17 8
-127 28 4 42 8
76 17 -20 3 8
123 24 2 9 8
-144 8 -5 1 7
-12 4 -7 -1 7
156 14 7 2 7
-81 13 0 -8 7
-91 8 -3 -24 6
178 24 1 10 6
-2 23 -3 9 6
-166 -13 -22 -13 6
146 16 -10 -13 5
84 21 8 -1 5
-121 46 27 39 5
85 32 25 62 5
151 18 -11 8 4
-134 9 -17 6 4
-42 -1 -2 0 4
156 0 -7 -2 4
-83 -7 -14 -23 3
-126 -12 -3 -13 3
189 43 28 33 3
17 16 -1 -4 3
-163 -12 -58 -51 2
90 -15 17 9 2
52 -27 -55 -11 2
-183 0 -31 -2 2
29 -2 -60 -30 2
149 3 -2 2 1
-104 22 14 29 1
-50 27 8 7 1
204 35 18 22 1
-66 -7 -11 -15 1
-77 53 27 39 1
125 -13 -36 -39 0
23 4 -23 1 0
-141 20 3 9 0
62 -5 -27 -21 0
103 10 -29 -21 0
-140 12 7 25 0
2 9 -45 -28 0
179 31 19 28 0
-108 -6 -1 -56 0
-57 7 17 20 0
161 14 21 35 0
-9 33 8 73 0
-126 24 -36 -13 0
134 14 -2 1 0
78 32 -1 9 0
-171 -1 -21 -20 0
62 8 -11 5 0
144 28 19 25 0
-65 62 58 55 0
28 44 22 32 0
165 11 -1 5 0
-85 5 -18 -34 0
-49 42 -5 19 0
153 11 3 8 0
-12 -28 -39 -43 0
-189 -39 -31 -50 0
75 -3 9 -9 0
81 38 -53 -6 0
-148 0 -51 0 0
36 -3 -16 24 0
134 12 9 29 0
-120 22 -12 -9 0
-52 -15 -10 -7 0
174 20 13 23 0
-50 20 4 9 0
-100 25 5 5 0
157 6 1 7 0
31 17 17 15 0
-163 0 -18 -32 0
82 1 29 49 0
112 17 -41 -21 0
-155 23 -7 4 0
21 2 -17 -26 0
168 8 -1 -24 0
-135 -5 -70 -42 0
-65 13 13 46 0
177 9 -25 -20 0
-84 -23 -23 -16 0
-127 8 -11 16 0
159 23 9 24 0
55 15 4 10 0
-173 -6 -7 7 0
81 7 -3 0 0
127 14 -3 9 0
-139 16 7 12 0
16 17 14 27 0
165 5 7 6 0
-103 2 0 8 0
-59 27 9 32 0
145 -10 -29 -17 0
7 32 28 30 0
-130 15 -18 -1 0
137 10 1 7 0
72 20 2 27 0
-144 13 -2 12 0
42 3 2 13 0
144 28 1 9 0
-144 0 -12 -3 0
-24 13 -7 6 0
165 12 -10 12 0
-76 12 -2 0 0
-112 4 -11 -7 0
141 -6 -40 -11 0
16 13 -51 -5 0
-164 -3 -57 -1 0
111 12 -31 -1 0
97 6 4 14 0
-176 -4 -1 -8 0
21 9 -16 -4 0
155 12 -9 1 0
-108 20 3 -1 0
-70 -9 1 0 0
183 9 39 14 0
-33 26 -12 14 0
-108 23 23 24 0
149 11 86 23 0
42 16 109 20 0
-156 14 25 -10 0
87 18 -14 -2 0
132 20 -15 19 0
-146 16 45 14 0
12 16 1 -6 0
182 26 -74 -16 1
-92 15 -110 3 1
-67 14 -33 16 1
168 9 66 46 1
-22 12 -20 11 1
-120 4 -118 -14 2
143 15 -117 4 2
67 17 -23 0 2
-175 5 142 32 3
70 13 101 0 3
132 13 -30 -22 4
-159 -9 -90 -35 4
-23 4 21 -8 4
156 6 174 49 5
-87 15 184 43 5
-85 15 42 8 6
175 12 -38 11 6
0 19 -59 -3 7
-140 12 -88 -19 7
133 11 -89 -8 8
95 21 -81 -8 8
-135 31 -49 31 9
84 32 -125 9 10
164 23 -201 -26 10
-129 4 -100 0 11
-53 -1 130 11 11
149 0 303 78 12
-73 5 188 25 12
-121 -2 -27 6 13
163 7 -96 -18 14
47 28 -112 -28 14
-106 53 -52 10 15
164 96 22 71 15
122 64 149 109 16
-101 66 142 79 16
-6 -7 131 -3 17
101 -20 140 14 18
-134 -29 32 -38 18
-117 -58 -183 -85 19
92 -44 -243 -66 20
-74 -34 -159 -77 20
-171 -44 26 7 21
116 -14 -7 -16 22
31 -13 -124 -33 23
-114 33 -119 10 24
82 20 -49 27 24
124 28 30 12 25
-135 12 -9 14 26
-3 12 53 12 27
146 9 34 19 28
-84 5 61 5 28
-106 -14 6 -44 29
107 -18 -142 -51 30
-37 -10 -130 -5 31
-88 25 52 13 32
129 31 186 30 32
152 81 180 68 33
-121 56 11 26 34
65 60 -52 71 35
176 70 2 78 36
-53 77 75 112 36
18 42 -78 0 37
174 5 -60 -35 38
-74 5 -61 -40 39
-97 8 102 54 40
193 45 117 81 41
60 20 -47 5 42
-89 18 -94 -56 42
118 24 50 -2 43
105 60 238 110 44
-159 32 -64 32 45
11 16 -240 -25 46
124 12 -7 37 47
-157 -2 210 18 48
-91 -9 131 -21 49
156 13 -86 -38 49
-57 15 -150 -33 50
-127 -7 2 33 51
119 -10 67 40 52
2 -24 -90 -50 53
-202 -31 -214 -97 54
78 -1 -136 -49 54
71 -13 76 11 55
-200 -19 107 26 56
9 0 -105 -12 57
169 29 -119 -19 58
-69 56 86 55 59
-10 47 45 48 59
236 64 -139 32 60
13 51 -17 11 61
-121 2 262 35 62
133 -15 133 -34 62
65 10 -118 -9 63
-126 40 -94 24 64
128 55 169 71 65
170 47 208 84 66
-145 22 -65 -19 66
2 9 -156 -20 67
185 13 -51 -14 68
-99 0 -20 -33 69
-98 0 88 -1 69
138 -10 106 24 70
-30 -13 61 -21 71
-177 -35 -98 -34 72
88 -36 -153 -83 72
39 -27 -217 -100 73
-203 -10 -221 -60 74
19 -7 129 62 75
126 -1 165 62 75
-149 -9 44 0 76
-44 -28 -349 -115 77
83 -72 -150 -55 77
-191 -79 57 -79 78
-168 -47 -19 -28 79
79 -44 -274 -81 79
-8 3 -70 -51 80
-64 53 306 122 81
106 52 240 51 81
58 -12 -83 -41 82
-211 -100 -362 -164 83
-69 -52 28 16 83
105 24 172 57 84
-112 7 -51 11 85
-74 -16 -56 -14 85
186 32 109 15 86
-16 50 149 88 87
-42 56 -202 -25 87
215 34 -203 -26 88
128 60 105 95 89
-89 80 87 58 89
170 80 156 127 90
188 71 70 103 90
-132 30 -124 33 91
-4 16 -106 20 91
196 35 -14 0 92
-104 15 64 -40 93
-62 11 191 -46 93
174 -7 162 58 94
-60 -14 20 12 94
-174 -20 22 20 95
104 -18 -213 -48 95
42 -23 -176 -62 96
-170 -18 190 63 97
63 -2 174 47 97
145 1 -96 -29 98
-175 0 -390 -101 98
47 41 -91 -12 99
204 41 289 130 99
-44 44 140 56 100
-61 32 -170 3 100
155 12 -172 -29 101
-25 32 -138 -52 101
-128 17 22 -5 102
132 21 119 -38 102
84 29 335 120 103
-140 32 68 92 103
87 57 -17 80 104
192 62 -21 23 104
-100 49 272 60 104
13 62 70 33 105
153 19 -280 8 105
-29 33 -9 -51 106
-125 -2 296 48 106
147 -2 189 21 107
-2 -31 -200 -66 107
-241 -65 -426 -129 108
54 -32 37 -6 108
73 -16 156 34 108
-172 -24 -110 8 109
-46 -79 -391 -141 109
123 -13 -31 -104 110
-148 -10 66 22 110
-77 18 60 43 110
180 -7 -188 -30 111
-62 -23 -189 -63 111
-163 18 400 98 111
174 38 58 48 112
69 31 -73 -22 112
-149 28 82 20 112
85 24 169 108 113
151 32 161 95 113
-142 1 -191 -51 114
-54 -10 -150 -49 114
176 17 75 11 114
-91 13 159 54 115
-71 4 57 12 115
200 -9 -294 -80 115
-20 5 -209 -67 116
-161 10 -4 3 116
145 24 92 96 116
88 4 44 60 117
-139 33 41 21 117
74 26 -290 -32 117
121 -1 -223 -3 117
-96 18 164 79 118
-47 -16 318 42 118
171 38 560 168 118
-56 22 93 32 118
-107 -1 -112 -32 119
195 14 -123 -51 119
-10 18 -122 4 119
-160 3 -172 -31 120
144 8 -184 -35 120
37 -8 -136 -40 120
-149 17 251 47 120
76 -5 -188 -108 120
196 22 28 -16 121
-93 33 111 92 121
-39 24 109 60 121
174 37 77 47 121
-51 13 -86 -20 122
-143 -19 -76 -4 122
135 -2 76 14 122
-9 -3 5 -25 122
-164 -1 -205 -60 122
93 -10 19 48 123
128 37 344 150 123
-148 33 126 20 123
6 17 -86 -14 123
192 18 -125 39 123
-95 18 89 -3 124
-57 28 120 64 124
166 -14 -190 -98 124
-7 26 30 17 124
-155 0 -62 -4 124
61 -35 -246 -65 125
44 13 6 -65 125
-149 6 -27 36 125
100 61 332 132 125
172 -16 -282 -81 125
-187 -37 -183 -35 125
-30 26 412 12 125
171 41 196 58 126
-94 3 -192 -65 126
-65 15 -18 124 126
145 19 38 22 126
32 52 175 113 126
-103 41 28 -21 126
146 25 -64 -12 126
87 56 119 70 127
-171 -16 -29 -25 127
36 -14 -116 -58 127
150 20 -45 0 127
-145 0 -75 -18 127
-70 -26 -241 -71 127
157 -34 -189 -66 127
-92 -8 117 -3 127
-112 -5 9 -25 127
155 21 170 24 128
45 28 8 25 128
-172 13 200 63 128
111 12 -58 -13 128
112 31 -157 -31 128
-177 19 91 70 128
42 13 57 -9 128
162 21 77 33 128
-102 25 11 -9 128
-58 23 -48 23 128
180 8 -145 29 128
-38 12 44 2 128
-148 -6 43 -7 128
151 13 154 31 128
36 1 -59 -31 128
-182 -8 -219 -44 128
101 13 -59 -7 128
136 21 160 71 128
-171 0 27 5 128
0 10 20 22 128
189 21 -3 50 128
-95 9 -64 -7 128
-57 25 95 53 128
193 22 -5 -2 127
-20 15 -84 19 127
-146 19 -54 -35 127
147 16 98 -13 127
67 22 38 16 127
-168 16 -83 -2 127
59 3 16 5 127
148 7 72 5 127
-141 15 114 27 127
-18 13 -35 5 127
173 7 -96 -13 127
-82 14 15 9 127
-100 11 -33 -4 127
149 0 -86 -17 127
18 14 -14 0 127
-145 -1 -40 -24 126
106 4 -138 -43 126
105 25 44 70 126
-146 18 20 15 126
47 20 92 60 126
161 28 104 20 126
-104 19 59 15 126
-55 16 115 30 126
168 15 15 13 126
-65 -2 -82 -25 125
-111 22 -23 12 125
142 11 -43 17 125
28 3 -63 -20 125
-153 12 18 -5 125
80 12 1 -1 124
105 13 -18 -8 124
-147 27 8 25 124
19 10 -25 -16 124
181 48 63 64 124
-88 26 -18 20 123
-66 14 21 29 123
184 15 4 4 123
-22 20 -2 1 123
-158 1 -5 -16 122
143 9 -34 -22 122
51 8 31 10 122
-191 -1 -46 -26 122
82 11 8 31 121
131 8 -8 8 121
-144 12 24 25 121
-13 -3 -115 -34 120
164 31 18 36 120
-101 8 37 19 120
-84 6 93 4 119
183 20 60 12 119
-19 11 -9 -11 119
-165 4 3 17 118
132 2 4 -1 118
68 0 -59 -27 118
-187 6 -27 4 117
60 2 -51 -1 117
140 11 -18 -4 116
-174 2 -38 -19 116
-4 0 -86 -54 115
164 -5 -65 -37 115
-53 20 82 71 114
-119 5 51 19 114
158 20 20 43 113
6 4 -63 -15 113
-177 -6 -19 -45 112
111 14 114 43 112
109 23 43 12 111
-143 26 -48 10 111
49 23 -45 11 110
181 32 -1 8 110
-113 30 55 32 109
-32 21 38 21 109
198 20 14 15 108
-34 26 5 12 108
-128 16 -1 18 107
177 23 -20 12 107
43 27 -32 32 106
-153 15 -57 -12 106
94 4 -37 -19 105
131 7 49 19 105
-148 6 116 55 104
7 6 42 20 104
176 2 10 1 103
-119 -11 -104 -42 102
-81 12 -82 -22 102
182 12 -17 -3 101
-3 19 78 51 101
-142 5 46 24 100
123 1 8 -4 100
39 -8 -70 -32 99
-169 -8 -69 -26 98
31 -13 -12 -19 98
120 -9 -16 -7 97
-162 -14 -54 -31 97
-40 -11 -80 -19 96
173 8 -22 -11 96
-99 -6 -22 -12 95
-104 -4 -15 -12 94
163 8 -69 -26 94
21 24 -16 23 93
-146 7 136 91 93
138 25 102 69 92
96 26 19 22 91
-156 18 -104 -32 91
45 22 1 -4 90
181 42 154 57 89
-136 29 139 55 89
-36 15 32 15 88
204 32 -58 -9 88
-64 18 -49 -3 87
-126 14 -30 2 87
192 19 -24 -6 86
31 25 -26 4 85
-155 14 -28 0 85
120 11 -60 -14 84
93 2 -21 5 84
-176 5 5 3 83
1 2 4 8 83
168 10 -89 3 82
-107 20 -90 -13 82
-63 12 -72 -15 81
184 1 34 4 80
-44 11 160 65 80
-128 20 190 64 79
173 29 124 30 78
63 30 1 -3 78
-172 1 -78 -24 77
91 -5 -46 -8 77
104 -4 -12 -14 76
-149 -2 -30 -16 75
-15 -7 -38 -18 75
162 3 -56 -17 74
-120 -16 -65 -26 74
-113 -21 -42 -31 73
147 -28 -61 -44 73
-50 -8 -57 -39 72
-177 -25 -56 -37 72
92 -21 -130 -37 71
30 -11 -87 -24 70
-182 -8 -176 -68 70
34 -11 -110 -43 69
142 20 58 34 68
-135 22 304 100 68
-20 1 287 86 67
190 24 122 26 66
-56 17 -60 -8 66
-96 13 -44 10 65
170 15 -23 6 65
19 18 -53 0 64
-156 13 -63 -4 63
139 28 -22 16 63
109 30 -11 14 62
-129 21 -37 12 62
49 5 -38 -1 61
151 0 -118 -14 61
-127 -2 -116 -19 60
-51 -3 -28 11 60
166 1 50 3 59
-63 -5 49 -7 59
-147 -10 73 -4 58
141 -5 76 7 57
41 14 72 13 57
-145 20 -6 4 56
121 38 -27 34 56
136 39 15 32 55
-133 36 31 33 55
14 18 -18 10 54
160 24 -36 14 54
-103 19 -66 11 53
-48 22 -2 8 52
169 10 -4 -7 52
5 36 -9 20 51
-138 14 -31 -5 51
142 17 -43 24 50
92 19 20 8 50
-121 17 73 42 49
83 9 -7 13 48
125 9 -47 8 48
-165 9 -16 -6 47
-38 1 74 20 47
151 13 182 54 46
-111 1 61 -8 45
-95 14 -17 15 45
142 14 -49 12 44
-2 18 -21 7 44
-133 8 -4 -12 43
105 -1 -74 -6 43
85 3 -17 -2 42
-161 -12 -33 -1 41
61 9 -47 -5 41
143 7 -60 -6 40
-118 11 -53 8 40
-41 20 -3 12 39
154 -7 26 4 39
-92 -1 9 -18 38
-102 5 -63 -12 38
160 16 -33 20 37
33 12 18 20 37
-154 8 60 21 36
90 9 35 -12 36
91 11 22 5 36
-166 1 40 -1 35
24 14 39 4 35
160 17 -16 2 34
-96 26 -33 10 34
-37 12 -9 16 33
167 11 -9 11 33
-42 9 -16 8 33
-134 -11 -24 -9 32
167 31 2 13 32
44 13 -10 9 31
-139 19 -7 21 31
96 16 -2 26 31
124 19 -13 17 30
-106 39 7 24 30
-1 4 -23 -4 29
198 32 20 36 29
-83 4 -1 0 29
-73 14 6 9 28
143 13 7 5 28
-35 8 4 -1 27
-181 -14 -19 -20 27
126 25 3 14 27
60 14 -17 8 26
-153 8 -21 5 26
53 12 14 10 25
126 6 18 7 25
-108 29 30 18 25
-16 26 19 16 24
176 27 1 18 24
-95 -1 -41 -21 23
-121 -21 -39 -25 23
127 -21 -46 -38 22
-43 -29 -57 -37 22
-134 4 -8 2 22
118 20 -1 13 21
97 29 7 20 21
-122 31 17 27 20
45 14 8 13 20
143 4 -21 -7 20
-125 -6 -31 -42 19
-31 14 25 31 19
176 25 44 54 18
-31 40 24 45 18
-34 61 4 39 18
145 8 -27 -11 17
30 11 -6 14 17
-156 0 -9 12 17
87 15 -4 12 16
140 32 25 33 16
-129 22 19 16 16
15 9 6 10 15
180 34 22 31 15
-97 10 18 19 15
-63 19 14 12 14
164 8 -4 2 14
-63 -23 -32 -27 14
-186 -48 -56 -51 13
124 2 -7 4 13
55 18 -15 2 13
-153 12 0 14 13
67 15 -3 7 12
115 -3 -18 -30 12
-148 8 4 12 12
-14 13 -26 -25 12
180 38 4 25 12
-89 13 -5 12 11
-67 31 15 20 11
159 10 -9 -1 11
-4 12 10 21 11
-145 -5 -24 -23 11
122 14 -1 -18 11
92 25 32 10 10
-131 24 -2 6 10
54 26 26 42 10
129 10 -38 2 10
-112 10 -8 -1 10
-66 -8 -45 -36 10
158 6 13 18 10
-78 -3 -33 -22 9
-107 3 -12 -2 9
160 11 -11 1 9
20 11 -1 5 9
-151 4 -3 4 9
109 12 5 1 8
103 19 3 8 8
-138 39 21 33 8
47 25 11 21 8
162 27 25 30 7
-64 50 21 26 7
-49 14 14 11 7
164 5 -29 -27 7
-53 0 -20 -17 7
-144 -14 -29 -19 6
135 6 31 35 6
32 8 10 17 6
-182 -11 -34 -17 6
64 -14 -43 -27 6
104 -1 14 22 5
-153 8 -22 -8 5
9 14 -8 28 5
158 9 -19 -14 5
-99 6 1 15 5
-82 -1 -11 3 5
182 32 -2 12 4
-9 21 -1 11 4
-122 9 5 18 4
141 20 20 20 4
33 -1 -11 -1 4
-146 3 -5 3 4
71 11 2 8 3
128 16 -4 -28 3
-129 3 38 23 3
-11 11 11 23 3
167 23 32 61 3
-56 27 -28 5 3
-98 5 -17 -17 2
161 19 19 35 2
-2 11 -11 18 2
-161 0 -13 2 2
101 -3 -19 -9 2
69 -1 -23 -13 2
-165 0 -13 -1 2
45 26 -5 1 1
143 9 1 4 1
-149 -9 -10 -7 1
-28 18 0 8 1
159 9 -14 -10 1
-40 23 20 16 1
-124 -9 -24 -23 1
149 7 13 33 1
41 33 23 39 0
-147 13 -68 -75 0
114 32 54 3 0
102 14 -44 -54 0
-126 32 -3 76 0
40 39 -9 78 0
177 37 6 34 0
-98 17 26 21 0
-63 7 -18 -6 0
161 13 2 14 0
-25 26 23 25 0
-128 3 0 -3 0
107 -13 -22 -17 0
28 -8 -10 -4 0
-166 2 -9 -3 0
45 -18 -23 -14 0
142 23 -2 11 0
-145 -1 -14 -11 0
2 0 21 14 0
185 24 14 29 0
-95 17 0 8 0
-80 13 -6 16 0
169 12 -8 -2 0
-17 11 0 -9 0
-142 31 45 52 0
126 8 -20 -5 0
71 7 -3 12 0
-167 3 -10 -3 0
50 0 -45 -82 0
131 7 36 65 0
-125 21 21 22 0
-31 -10 -37 18 0
173 4 -7 -2 0
-86 9 -34 -11 0
-87 8 20 37 0
167 12 2 5 0
10 12 6 2 0
-147 9 -3 0 0
110 9 0 1 0
86 15 4 14 0
-131 30 16 14 0
33 5 -6 -5 0
156 10 -1 2 0
-131 -6 -9 2 0
-43 11 -19 4 0
150 -2 -50 -9 0
-39 12 -44 11 0
-109 16 -59 16 0
145 5 18 15 0
17 2 60 -2 0
-157 4 85 -2 0
98 21 44 8 0
93 5 -4 -6 0
-138 19 -11 -8 0
4 6 -4 -7 0
172 29 3 13 0
-96 12 -65 3 0
-69 2 -75 0 0
161 6 -50 13 0
-37 -3 11 18 0
-129 7 23 -2 0
153 23 -26 -3 0
57 12 -24 -7 0
-151 11 40 3 1
66 2 104 6 1
123 16 -33 -19 1
-125 22 -112 -21 1
-10 7 -177 11 1
171 12 52 59 2
-89 2 157 13 2
-91 10 172 -16 2
164 6 48 -18 2
-5 14 -28 0 3
-150 6 -7 37 3
127 19 42 20 3
75 18 62 48 4
-160 10 -53 -4 4
52 20 -84 -3 4
138 8 -56 -6 5
-125 21 22 33 5
-20 19 -27 5 5
178 7 -110 -10 6
-62 0 -145 -30 6
-110 4 -35 -1 7
147 4 83 37 7
30 19 -10 -23 8
-143 12 -198 -38 8
112 14 -84 -12 9
100 21 86 12 9
-149 21 213 45 10
35 13 120 16 10
154 20 -16 30 11
-109 17 48 41 11
-66 12 84 35 12
175 21 96 31 12
-32 32 85 -3 13
-89 47 52 16 13
129 26 -59 16 14
71 30 -110 -4 15
-113 23 -113 -8 15
91 22 -49 -10 16
130 2 -92 -27 17
-156 -12 -153 -42 17
-48 -29 -145 23 18
113 -32 -24 -13 19
-139 -40 196 23 20
-119 -30 220 -23 20
122 -9 123 -18 21
-21 7 -118 -32 22
-121 5 -190 -27 22
157 44 -49 59 23
100 53 106 60 24
-102 59 10 53 25
85 34 -100 -32 25
135 16 -203 -25 26
-150 -13 0 6 27
-65 -13 202 71 28
148 2 143 19 28
-86 3 52 -18 29
-97 0 7 -6 30
135 -16 20 -9 31
-20 -12 0 6 31
-156 -15 -201 -89 32
107 -8 -207 -75 33
88 17 -89 -2 34
-150 14 65 34 35
40 31 156 68 36
176 55 2 57 36
-88 34 -112 30 37
-22 32 -82 1 38
164 4 -8 -32 39
-65 -14 64 0 40
-88 -6 -32 -24 40
184 6 -99 -5 41
14 -6 -159 -66 42
-137 25 41 28 43
38 10 245 72 44
50 30 220 76 44
-188 12 48 26 45
2 16 -112 7 46
216 51 -47 10 47
-63 56 144 40 48
-20 41 52 2 49
189 31 -32 6 49
-41 8 -136 -31 50
-162 -17 11 6 51
122 -3 191 66 52
37 -8 13 -30 53
-183 -10 -106 -60 53
51 5 -68 6 54
120 26 -48 44 55
-141 20 -289 -32 56
-10 6 -257 -25 57
154 14 80 -9 58
-92 17 159 45 58
-135 -4 -191 -40 59
159 -2 35 12 60
50 20 269 -17 61
-133 12 362 52 62
163 23 -30 14 62
94 18 -225 21 63
-176 18 191 59 64
60 13 254 25 65
156 9 -13 -1 66
-149 -8 -210 -20 66
-21 11 -134 -38 67
198 15 24 17 68
-54 1 -335 -124 69
-94 -6 -198 -15 70
169 14 121 -9 70
0 19 359 127 71
-153 -7 -115 -29 72
113 -8 -254 -73 73
90 11 61 58 74
-159 26 273 71 74
39 23 125 55 75
173 28 -174 -36 76
-124 23 23 11 77
-63 21 21 42 77
174 14 -152 1 78
-59 20 -60 -23 79
-115 18 99 -3 80
170 30 140 35 80
61 55 -18 39 81
-173 27 -20 11 82
90 20 -29 -22 82
102 4 12 -22 83
-136 2 20 77 84
15 12 127 70 85
166 4 85 64 85
-147 -33 -256 -103 86
-143 -42 -188 -87 87
149 -8 65 12 87
-42 -6 26 -35 88
-128 22 55 -7 89
178 35 -171 -27 89
93 61 146 107 90
-132 47 251 114 91
56 -14 -125 -17 91
90 -19 -206 -45 92
-212 -38 -66 -43 93
-36 -23 153 -11 93
156 -8 108 -25 94
-100 -20 -33 -23 95
-85 -21 -280 -96 95
164 8 -125 -49 96
26 42 92 116 96
-94 64 56 65 97
176 29 -46 51 98
97 17 -94 -40 98
-175 15 114 45 99
71 41 53 56 99
200 45 47 30 100
-102 45 132 34 101
79 55 213 56 101
240 64 149 97 102
4 70 -12 100 102
-59 46 -75 21 103
185 54 3 32 104
16 34 -131 -47 104
-155 4 -274 -30 105
106 2 -65 27 105
105 19 65 34 106
-198 -29 74 -63 106
-15 -35 77 -73 107
108 -32 123 4 107
-148 -8 61 11 108
-99 -13 -53 44 108
173 -9 122 -7 109
-96 -29 68 -3 109
-165 -30 -287 -73 110
117 -56 -102 -55 110
12 -10 161 -9 111
-190 -8 296 40 112
65 12 167 19 112
115 -1 -325 -64 112
-173 -8 -349 -91 113
-3 -6 -40 0 114
175 -18 -273 -97 114
-97 30 -205 15 114
-88 17 166 96 115
212 60 347 152 115
-6 51 192 40 116
-139 5 -250 -107 116
166 38 89 19 117
68 34 359 98 117
-175 19 391 110 117
64 -11 -199 0 118
108 -36 -328 -87 118
-169 8 66 -28 119
-24 15 94 8 119
187 -8 -361 -91 119
-109 -16 -184 13 120
-121 -4 104 40 120
186 27 234 59 120
9 -2 -406 -110 121
-193 -54 -415 -136 121
135 59 354 169 121
124 45 452 145 122
-156 26 -94 -46 122
55 -32 -531 -107 122
151 16 227 91 122
-155 48 531 167 123
-37 20 305 59 123
195 -15 -357 -85 123
-83 -11 -432 -134 123
-166 -3 37 44 124
180 25 277 89 124
34 15 130 24 124
-180 -1 -30 -18 124
32 -61 -461 -204 125
110 0 -151 -35 125
-111 60 181 119 125
93 85 48 117 125
303 119 -20 139 125
-39 71 -4 -45 125
-21 86 360 169 126
243 90 281 107 126
-36 -51 -753 -241 126
-237 -101 -309 -101 126
69 -40 400 94 126
-25 -9 473 110 126
-220 -32 55 -5 126
40 -76 -516 -161 126
55 -64 -235 -82 126
-236 -40 47 -49 127
-46 -40 -24 -53 127
152 -33 -255 -161 127
-145 -14 -41 -16 127
-115 5 171 74 127
204 26 225 114 127
20 37 43 72 127
-173 -57 -711 -228 127
186 28 80 77 127
65 52 306 87 127
-186 32 264 81 127
85 16 -94 -78 127
162 -24 -465 -101 127
-128 86 559 226 127
-2 47 303 89 127
233 49 25 26 127
-94 9 -153 -64 127
-108 16 -80 -45 127
198 28 130 38 127
22 38 22 9 127
-166 8 -147 -26 127
145 16 -37 17 127
106 24 -15 9 127
-189 12 -224 -22 127
39 -11 -203 -46 127
172 10 -55 -16 127
-146 21 195 20 127
-62 27 266 80 127
234 38 172 90 127
-75 4 8 5 127
-149 3 -72 -26 127
212 36 -64 12 127
66 43 -28 44 127
-163 35 -9 16 127
133 30 5 8 127
148 17 -28 5 127
-197 -10 -102 -37 127
17 1 -8 4 127
175 0 -30 -3 127
-134 12 4 17 127
-80 8 -19 -13 127
199 -2 -206 -65 127
-26 31 60 51 127
-150 28 127 21 127
189 35 168 48 126
85 27 50 16 126
-204 -4 -97 -36 126
94 14 -30 7 126
160 28 134 39 126
-154 23 35 20 126
-10 7 -71 -16 126
196 10 -25 8 125
-100 15 -8 13 125
-100 21 -5 21 125
190 5 -89 -24 125
-33 10 -87 -26 125
-138 28 9 21 124
160 26 121 80 124
120 21 93 27 124
-175 4 14 2 123
22 -10 -80 -44 123
106 -2 -34 -1 123
-143 -25 -106 -63 123
-55 2 37 29 122
215 14 -32 -13 122
-78 26 2 32 122
-122 19 61 76 122
174 19 42 20 121
45 21 178 89 121
-180 10 65 2 121
121 1 -59 -28 120
46 6 -58 -7 120
-155 17 -34 -2 120
51 14 -38 -6 120
197 21 -29 2 120
-102 12 -1 0 119
-77 9 -9 -3 119
187 13 -11 2 119
-46 16 -8 3 119
-132 6 -9 -6 118
150 6 -32 -11 118
28 11 -63 -8 118
-186 8 4 -12 117
90 5 -7 -4 117
131 19 -17 12 117
-160 6 -100 -21 116
-14 2 7 26 116
198 27 83 87 115
-150 0 74 29 115
-117 6 106 29 115
200 1 59 -32 114
-25 10 90 9 114
-171 -6 16 0 113
172 5 -68 -18 113
79 14 -14 6 113
-207 -2 -50 -20 112
87 9 -52 -6 112
162 23 -23 11 112
-169 12 -28 2 111
-10 -2 -20 -5 111
210 7 -46 -16 111
-104 1 -54 -22 110
-118 5 16 12 110
224 20 11 25 109
11 31 -47 -14 109
-186 11 -107 -51 109
147 18 18 55 108
91 7 15 0 107
-217 7 133 43 107
68 12 50 4 107
197 14 23 7 106
-166 -9 -73 -23 105
-42 -1 20 14 105
207 -11 46 10 104
-65 13 41 25 104
-130 6 -32 -5 104
219 17 -59 -4 103
42 20 -20 0 103
-191 14 -24 -7 102
140 12 -27 -2 102
133 18 -14 3 101
-196 14 -15 1 101
26 14 1 8 101
181 7 -57 -26 100
-156 4 -24 -11 100
-83 5 -28 -2 99
174 4 0 24 99
-47 15 -7 -8 98
-151 9 -1 3 98
171 13 96 53 97
51 13 72 46 97
-189 20 30 36 96
140 18 -7 -1 95
162 11 25 7 95
-139 11 35 7 94
-3 4 -8 1 94
177 7 -44 -10 93
-107 11 -25 -3 93
-101 4 -4 -7 92
173 0 -32 -8 92
-42 6 -56 -11 91
-188 2 -32 -17 90
138 6 2 9 90
71 10 -24 -5 89
-155 -4 -170 -76 89
72 0 -49 1 88
157 15 134 80 87
-152 21 158 106 87
-40 22 152 56 86
199 20 -29 -18 85
-70 15 -46 -31 85
-119 8 12 2 84
168 3 12 14 83
26 16 -3 2 83
-161 13 5 5 82
130 25 -34 -3 81
107 20 -39 -1 81
-167 16 -9 11 80
43 21 -11 11 80
184 30 -43 -1 79
-131 11 -100 -35 78
-78 4 -125 -50 78
194 16 17 46 77
-38 27 68 84 76
-126 26 26 61 75
214 34 64 42 75
72 52 115 19 74
-169 23 192 56 73
136 35 95 30 73
155 38 -16 17 72
-141 8 -45 -7 71
26 24 -20 3 71
223 26 -32 14 70
-113 5 -58 -13 69
-97 -7 -54 -21 69
177 -9 -47 -14 68
-62 -17 -118 -42 67
-203 -41 -179 -90 67
120 -32 -84 -37 66
19 -23 20 -12 66
-240 -28 115 26 65
52 -21 51 -5 64
148 6 -46 -18 64
-209 -7 -128 -44 63
-49 -3 -48 -6 62
194 13 75 32 62
-116 11 92 20 61
-101 21 42 18 60
216 26 -38 -1 60
4 42 -36 20 59
-159 30 -11 25 59
195 68 12 45 58
153 45 32 34 57
-169 24 39 5 57
51 -17 -47 -39 56
135 -32 -88 -41 55
-214 -34 -75 -40 55
-88 -27 -14 -16 54
174 -21 6 -23 54
-109 -12 -9 -16 53
-148 0 -46 -12 52
177 -5 -83 -13 52
-13 -18 -33 -27 51
-178 4 36 2 50
106 -9 36 -12 49
168 50 50 42 49
-135 32 19 33 48
72 43 46 47 47
223 34 4 32 47
-84 27 -45 21 46
-46 20 -52 13 45
162 14 5 31 45
-84 7 47 16 44
-193 -3 39 -6 43
123 3 8 -5 42
36 1 -27 -17 42
-205 -20 -61 -18 41
114 32 -58 20 40
113 2 -55 -10 40
-133 21 -8 19 39
67 66 121 69 38
203 49 120 46 38
-56 58 153 70 37
-53 17 55 20 36
164 -3 -21 0 36
-18 4 -40 5 35
-156 -13 -47 -19 34
128 12 -32 -4 34
47 -17 -48 -12 33
-177 6 -30 2 33
68 13 -18 7 32
101 -26 -49 -23 32
-121 28 -15 -1 31
-54 -14 -30 -20 31
169 8 -7 8 30
-63 5 -4 6 30
-102 2 -12 1 30
136 -8 -18 -12 29
20 14 2 8 29
-173 -24 -27 -18 28
124 22 5 18 28
103 21 6 13 28
-154 14 -8 5 27
40 17 -6 6 27
159 26 4 16 27
-122 14 -1 11 26
-41 18 11 13 26
182 22 12 18 25
-41 28 8 19 25
-108 23 5 19 25
166 18 8 20 24
56 33 17 30 24
-167 1 -10 3 24
110 16 2 16 23
122 22 7 27 23
-144 25 3 13 23
10 1 -14 1 22
196 47 16 20 22
-96 33 12 25 22
-40 33 19 27 21
211 25 11 20 21
-22 24 15 19 21
-156 1 -14 0 20
132 -14 -30 -17 20
16 -29 -38 -27 20
-224 -37 -61 -51 20
30 -23 -34 -29 19
115 -8 -24 -16 19
-186 -23 -41 -34 19
-44 -22 -28 -29 19
211 28 58 66 18
-70 55 15 19 18
-76 41 16 14 18
189 7 -44 -68 18
-7 28 84 102 17
-162 18 -47 -14 17
149 15 11 61 17
92 14 -35 -8 17
-181 12 -8 -7 17
55 31 8 25 16
169 20 -6 9 16
-150 -2 -21 -15 16
-41 10 12 15 16
181 13 -4 -1 16
-64 17 1 24 15
-114 18 9 7 15
154 14 -8 -3 15
41 29 8 20 15
-171 3 -9 5 15
126 25 3 24 15
97 3 -11 8 15
-148 24 1 10 15
31 20 1 15 14
165 9 4 0 14
-109 20 6 -22 14
-59 15 54 32 14
184 14 -25 -19 14
-45 6 -11 5 14
-153 -23 -55 -31 14
147 6 17 2 13
50 14 -20 -10 13
-112 49 38 61 13
110 36 10 28 13
131 17 -9 6 13
-172 -21 -40 -31 13
-31 -24 -33 -31 12
155 4 -22 -16 12
-84 23 6 15 12
-64 5 5 3 12
163 0 -23 -26 12
-13 16 26 18 11
-156 5 -7 -14 11
131 13 -18 -23 11
45 1 -13 10 11
-200 -18 -62 -52 10
17 -39 -66 -41 10
-4 -126 -143 -125 10
-109 22 -12 14 10
15 65 56 56 9
302 146 137 142 9
48 100 80 93 9
-170 -27 -44 -27 9
275 141 125 126 8
93 81 70 72 8
-110 51 51 54 8
121 7 -9 1 7
55 -20 -47 -35 7
-205 -14 -51 -52 7
43 20 32 47 7
120 -38 -60 -51 7
-235 -82 -98 -80 6
-95 -38 -59 -52 6
161 -12 -35 -26 6
-42 39 28 26 6
-88 37 25 27 6
215 44 9 17 6
33 20 -5 6 6
-182 0 -28 -31 6
116 16 18 16 6
89 -25 -68 -46 5
-178 -1 -27 -3 5
-34 -45 -63 -49 5
222 56 49 49 5
-117 7 10 22 5
-60 38 28 35 5
217 36 34 52 5
-26 16 9 24 5
-110 62 37 48 5
163 28 5 17 5
52 -9 -12 -3 5
-223 -36 -65 -43 5
40 -13 -25 -10 5
137 15 -1 -3 5
-148 13 32 12 5
-5 8 -11 14 5
208 40 12 21 5
-117 -20 -44 -36 5
-81 16 29 25 5
184 22 2 3 5
-18 14 17 36 5
-105 32 31 48 4
145 32 30 44 4
85 33 16 20 4
-140 28 13 23 4
61 14 0 -2 4
137 20 6 4 4
-157 -8 -25 -2 4
-41 -8 -11 -4 4
201 50 22 38 4
-60 18 3 -3 4
-133 -28 -41 -33 4
151 -6 -10 13 4
35 32 26 37 3
-148 14 17 20 3
99 -11 -44 -42 3
99 13 -18 -19 3
-175 7 -12 6 3
67 36 23 30 3
174 12 -4 22 3
-111 23 -4 -1 3
-63 5 1 2 3
207 35 31 29 3
-32 31 14 18 3
-132 12 -12 -14 3
118 -33 -56 -43 2
48 17 15 44 2
-191 -4 -10 -18 2
170 84 70 112 2
126 21 0 18 2
-178 -8 -15 0 2
21 10 -12 -3 2
169 11 6 2 2
-100 31 22 26 2
-88 -3 -16 -12 2
135 -33 -47 -36 2
-38 9 -1 3 2
-168 -5 -15 -4 2
155 22 4 10 2
61 18 7 14 2
-186 -2 -16 -9 2
67 13 -11 0 2
153 17 4 4 2
-158 4 -27 -7 2
-10 8 -15 2 2
178 10 -20 -2 2
-88 20 -4 17 2
-96 17 36 24 2
189 15 23 13 2
-12 5 8 0 2
-147 19 4 8 2
133 9 -7 8 2
67 -7 -84 -25 2
-191 -9 -108 -21 2
52 4 -111 -9 2
156 19 10 38 2
-169 -21 69 -3 2
-24 12 147 28 2
157 -1 51 -22 3
-45 37 39 32 3
-81 41 26 33 3
189 43 -17 23 3
59 46 -32 16 3
-158 12 -102 -8 3
109 10 -26 17 4
94 6 18 5 4
-182 -9 28 -19 4
15 1 -1 -28 4
137 -13 -117 -38 4
-145 -22 -149 -40 5
-84 -12 -65 -36 5
198 42 126 87 5
-18 61 187 74 5
-113 37 183 72 5
165 12 68 27 6
44 30 9 22 6
-154 30 -35 19 6
109 7 -58 -7 7
126 1 -61 -14 7
-173 5 -65 -14 7
-4 -1 -83 -18 7
165 2 -52 -11 8
-111 -4 -64 -28 8
-89 8 -153 -38 8
163 -1 -59 -18 9
-10 11 -90 -30 9
-141 2 -72 -44 9
127 11 -82 10 10
64 19 179 61 10
-174 11 363 103 11
53 9 321 52 11
151 19 93 24 11
-136 7 -136 -15 12
-29 2 -151 -43 12
173 5 -109 -28 13
-78 11 -74 -16 13
-106 7 -81 -19 14
171 12 -48 -14 14
7 18 9 19 15
-165 10 107 28 15
123 17 74 44 16
90 14 -31 19 16
-171 11 -90 -24 17
34 13 50 25 17
154 20 -111 -3 18
-120 20 -211 -33 19
-46 18 -210 -21 19
188 15 218 77 20
-55 28 390 67 20
-87 45 195 29 21
205 52 -54 -4 22
70 50 -110 5 22
-133 34 -3 52 23
128 31 -34 11 24
146 52 -43 13 24
-144 16 -7 21 25
20 2 -60 5 26
148 -1 -69 18 26
-133 4 74 18 27
-89 -12 31 -40 28
148 -32 -47 -75 28
-75 -34 -102 -70 29
-202 -47 12 -5 30
102 -18 164 54 30
10 -27 47 -12 31
-204 -19 -79 -35 32
48 -13 -183 -51 33
112 -4 -163 -32 34
-145 13 -139 -21 34
12 12 -17 -9 35
202 28 129 54 36
-84 24 80 23 37
-95 20 46 26 38
191 31 -37 25 38
4 32 -124 -33 39
-147 30 -49 30 40
160 40 86 19 41
104 27 344 146 41
-142 20 132 48 42
57 9 -129 -19 43
153 17 -135 -39 44
-137 15 41 13 45
-32 10 6 -14 46
182 10 -59 -12 46
-78 10 -42 -4 47
-110 17 -2 27 48
174 20 -98 -21 49
8 11 -127 -20 50
-166 15 16 2 50
126 20 360 116 51
137 27 231 55 52
-102 14 50 28 53
104 7 -100 -54 53
167 12 -122 -31 54
-134 3 -251 -85 55
-100 -3 -193 -36 56
136 18 56 32 57
-83 27 184 76 57
-144 6 62 32 58
137 16 -15 37 59
22 15 115 11 59
-174 15 103 -1 60
91 14 4 -15 61
121 13 -152 -30 62
-166 10 -50 21 62
-11 0 16 14 63
183 14 -27 -8 64
-100 9 -122 -18 65
-82 -6 -90 -22 65
196 7 43 0 66
-19 11 -67 -32 67
-185 2 29 58 67
138 22 152 45 68
75 6 61 32 69
-176 -5 -10 -7 69
93 8 69 -12 70
157 18 142 52 71
-148 24 7 -1 71
-32 -9 -223 -72 72
189 22 -46 47 73
-89 18 -58 14 73
-111 13 -3 39 74
189 8 31 -13 75
8 5 207 20 75
-169 -3 74 -8 76
129 7 -197 -41 77
87 5 -206 -58 78
-184 6 -210 -36 78
34 9 41 8 79
199 39 265 100 80
-132 28 -4 33 80
-23 11 -216 -61 81
197 11 -175 -26 81
-100 16 304 34 82
-133 21 433 143 83
181 20 -65 7 83
37 -15 -340 -103 84
-189 -8 47 -33 85
94 14 310 47 86
110 28 -99 16 86
-208 8 -283 -54 87
15 -10 -314 -107 88
223 33 128 89 88
-134 24 24 81 89
-64 6 -29 4 89
201 2 -26 -12 90
-65 14 102 -23 91
-159 4 118 -17 91
182 17 -69 -33 92
64 13 -231 -30 93
-166 23 205 106 93
108 27 325 118 94
160 18 -13 33 95
-144 7 -347 -59 95
-9 0 -111 -52 96
190 8 49 -37 97
-125 -14 -56 -88 97
-95 -6 0 -58 98
207 10 25 96 98
-23 13 90 32 99
-164 -3 -5 17 99
154 12 -15 14 100
86 38 174 79 101
-169 36 80 47 101
85 8 -458 -106 102
160 7 -165 -68 102
-151 34 341 67 103
13 61 302 112 104
274 64 -289 -19 104
-47 60 -110 58 105
-25 112 456 165 105
317 169 396 201 106
25 40 -158 -47 106
-196 -57 -380 -135 107
20 -107 -125 -40 107
1 -48 241 1 108
-238 -49 -74 -59 108
40 -65 -254 -176 109
191 17 82 11 109
-120 63 72 52 110
-39 47 90 84 110
226 -6 -149 -18 111
-154 -88 -392 -171 111
-249 -93 2 -71 112
107 -80 61 -27 112
-49 -81 -218 -113 113
-259 -52 -64 -72 113
68 -33 26 -28 114
107 6 163 26 114
-193 10 -254 -44 115
23 -23 -283 -66 115
238 77 400 144 115
-115 58 325 142 116
-59 41 198 69 116
199 -18 -361 -84 117
-50 12 -186 -104 117
-179 29 342 113 118
157 25 68 -3 118
70 -5 -202 -93 118
-171 11 -12 57 119
93 3 -70 42 119
121 -37 -264 -61 120
-160 10 -145 -88 120
3 45 82 45 120
231 101 345 180 121
-98 61 -79 -52 121
-116 -17 -509 -71 121
143 4 271 55 122
12 38 527 129 122
-161 -5 95 -5 122
147 -10 -231 -67 123
77 -9 -145 -20 123
-185 15 144 67 123
79 -7 270 1 124
189 3 -121 -45 124
-207 -39 -241 -70 124
-38 -30 -210 -75 124
213 20 129 102 125
-41 21 102 64 125
-99 32 -97 40 125
208 -38 -515 -197 125
-2 4 -153 30 126
-152 35 539 133 126
167 70 300 92 126
111 -17 -307 -111 126
-130 2 -249 -105 126
12 36 205 82 126
255 95 415 165 127
-97 38 -79 3 127
-57 -37 -361 -101 127
182 8 221 83 127
-79 27 249 55 127
-161 23 80 45 127
151 -4 -183 -59 127
-32 -16 -204 -23 128
-174 22 -1 -1 128
118 0 -80 -58 128
172 32 -43 -3 128
-100 17 -224 -9 128
8 7 60 56 128
192 19 191 49 128
-105 -19 86 51 128
-102 22 60 102 128
198 32 110 60 128
-3 38 234 44 128
-150 -2 -111 -39 128
229 14 -121 8 128
77 8 -69 -29 128
-172 21 161 61 128
48 17 68 47 128
104 8 -128 -15 128
-187 -2 -118 -41 128
-35 1 97 -20 128
158 8 -42 -38 128
-100 16 -49 -5 128
-139 -29 -146 -65 128
190 30 17 20 128
-24 16 0 -22 128
-110 53 37 120 128
153 13 -30 11 128
112 -2 -62 -2 128
-172 8 127 3 128
31 18 128 26 128
167 26 58 61 128
-135 21 15 8 128
-52 16 -135 -23 128
202 23 19 8 128
-74 10 -31 -8 128
-137 -3 -24 -34 128
184 1 -74 -21 128
24 16 -90 14 128
-172 1 -44 17 128
103 0 60 18 128
108 -6 -19 -45 128
-171 11 103 22 128
29 21 48 46 128
185 8 -75 18 128
-99 37 -85 20 128
-61 21 57 11 128
228 43 3 21 128
-33 16 -20 -1 128
-150 3 -52 -4 128
172 24 27 39 128
64 33 190 50 128
-184 16 63 -8 128
94 1 1 -8 128
111 -9 -98 -17 128
-181 -2 -62 -22 128
-18 -17 -23 -13 128
191 7 44 -3 127
-134 1 -2 -2 127
-107 4 -67 -12 127
210 17 -31 10 127
-35 8 -46 -15 127
-205 -4 -52 -13 127
160 11 -39 18 127
89 25 -66 13 127
-185 12 119 25 127
90 14 19 -13 126
162 23 55 24 126
-147 11 -67 -6 126
-36 13 8 20 126
217 23 77 26 126
-97 9 13 -22 126
-133 14 62 30 125
202 15 -1 21 125
12 24 39 27 125
-196 -2 -67 -27 125
136 6 -39 0 124
80 9 -27 -2 124
-206 11 19 10 124
59 0 -37 -9 123
186 12 -62 -2 123
-148 10 -65 -3 123
-49 8 -6 -11 123
189 5 36 17 122
-83 18 81 17 122
-131 6 -20 -8 122
191 12 -36 20 121
32 16 22 36 121
-185 28 28 -1 120
115 24 23 20 120
145 31 47 39 120
-193 -3 -25 6 119
6 0 -85 9 119
181 13 -3 -1 118
-159 4 0 4 118
-55 17 90 -3 117
238 29 66 22 117
-17 22 -20 5 116
-161 4 -24 -10 116
139 -5 -25 -9 115
52 3 -18 6 115
-156 12 -15 10 114
105 10 -11 0 114
155 14 -71 -11 113
-171 10 0 -6 113
-19 7 40 7 112
200 5 -28 -19 112
-105 -2 -3 2 111
-115 15 -40 6 111
203 19 -33 9 110
-13 18 69 44 109
-154 1 58 -11 109
132 7 112 26 108
80 16 69 22 107
-163 5 -93 -33 107
40 -21 -155 -51 106
169 -2 6 2 105
-132 -7 73 48 105
-35 6 89 35 104
214 14 28 11 104
-94 4 -85 -30 103
-124 4 -43 -8 102
166 9 -14 0 102
32 10 -66 -6 101
-182 4 -53 -3 100
93 8 -71 -5 100
100 10 -51 -12 99
-193 5 54 7 98
21 8 53 16 98
163 25 84 41 97
-135 15 -147 -13 96
-94 15 -62 -8 96
208 13 107 26 95
-53 9 117 18 94
-155 3 38 -23 94
172 13 6 25 93
41 16 -16 30 92
-156 11 23 20 91
132 17 -49 -17 91
141 20 -28 2 90
-188 12 -14 2 89
12 15 -25 6 89
189 23 -12 4 88
-92 15 -68 3 87
-79 6 -58 -4 86
223 21 -11 10 86
-5 24 -4 1 85
-138 20 -31 0 84
182 30 67 43 83
99 32 59 23 83
-207 6 102 24 82
68 -6 42 42 81
121 -14 -2 20 80
-232 -27 -33 0 80
-87 -26 -15 -45 79
153 -9 -26 -42 78
-144 -5 23 -21 77
-158 -10 -32 -25 77
179 3 -71 -20 76
-17 8 -97 -13 75
-183 2 -57 -1 74
139 2 -7 6 74
108 6 -66 -10 73
-186 7 -56 -10 72
48 8 -79 -18 71
185 12 -37 7 71
-136 14 150 35 70
-37 9 120 36 69
219 22 78 32 68
-52 19 26 16 68
-117 16 -1 16 67
176 -3 -56 -5 66
42 23 -9 13 65
-175 20 -20 7 65
156 34 61 22 64
123 13 21 -1 63
-171 7 -24 -14 63
16 14 -57 -1 62
146 9 -71 -6 61
-135 29 -26 17 61
-86 17 -66 6 60
164 7 -58 -2 59
-62 9 17 20 59
-161 4 82 9 58
137 -10 16 -7 57
22 14 5 4 57
-209 12 -26 6 56
29 9 56 14 55
50 11 81 18 54
-226 22 44 28 54
-101 23 -5 32 53
75 14 -17 14 52
-163 2 -47 -2 52
-143 13 -20 2 51
129 -2 -39 -8 50
-187 4 -71 -9 49
-196 7 -8 11 49
178 0 -29 9 48
331 15 -36 5 47
223 -6 -27 -10 47
410 -7 26 16 46
398 -10 -32 -7 45
50 -23 -66 -13 44
132 -9 -43 -10 44
288 2 74 15 43
-15 -6 156 9 42
-31 25 65 17 42
175 7 -20 -5 41
100 41 -25 34 40
-190 24 -59 14 40
33 45 -1 42 39
-6 48 42 45 38
-292 37 48 40 38
-97 27 19 14 37
94 30 -8 20 37
-163 23 -22 8 36
-109 3 -33 -6 36
157 8 -12 12 35
-21 44 9 34 34
-111 53 22 46 34
146 32 -4 18 33
86 32 28 42 33
-168 2 -24 0 32
91 24 19 28 32
87 -27 -15 -32 31
-174 -12 -10 -19 31
-43 -15 -24 -22 30
141 2 -12 0 30
-124 5 -9 1 29
-103 -2 -6 2 29
142 4 -13 4 28
-36 -1 -17 3 28
-185 -25 -32 -17 27
138 6 -5 4 27
47 14 -12 -2 26
-150 11 -1 2 26
56 1 -16 -8 25
141 8 -11 6 25
-135 14 -7 3 24
2 17 -4 10 23
165 -3 -22 -13 23
-69 13 -11 -1 22
-113 1 -11 -16 22
175 21 -2 16 21
10 17 0 14 21
-158 0 -15 -1 20
74 -32 -27 -24 20
68 -5 -9 4 19
-193 -18 -26 -9 19
44 18 -5 8 18
131 -10 -36 -17 18
-169 -30 -40 -30 17
-51 9 4 18 17
185 20 8 25 16
-41 31 17 16 16
-97 24 64 55 15
175 24 -4 7 15
29 1 -6 12 15
-151 5 8 44 14
102 16 -19 -1 14
129 41 48 76 13
-109 60 28 37 13
19 15 -14 -5 13
161 9 13 13 12
-147 -28 -43 -37 12
-117 -32 -36 -31 12
202 31 5 16 11
-50 -1 9 7 11
-145 8 -3 -8 11
149 4 9 32 10
56 12 -11 6 10
-172 10 -10 -14 10
74 3 12 2 10
134 16 -6 -9 10
-134 20 7 11 9
-12 10 -15 1 9
176 27 4 7 9
-83 29 -6 10 9
-85 19 29 38 9
163 8 -21 -7 9
-8 21 1 14 9
-121 26 -35 -27 8
131 14 22 35 8
77 31 -7 3 8
-131 31 17 27 8
53 2 2 -11 8
151 25 -3 20 8
-133 1 -7 12 7
-35 -13 -33 -24 7
161 0 -23 -33 7
-73 12 33 3 7
-111 0 -39 -49 7
179 12 -15 31 7
21 30 -19 22 6
-167 2 -24 11 6
134 25 -8 26 6
89 0 -15 -5 6
-164 10 0 15 5
34 12 0 -4 5
167 25 7 1 5
-145 -3 -7 -8 5
-67 -6 -20 -26 4
112 -54 -47 -42 4
-33 24 7 9 4
-90 32 11 6 4
204 64 63 58 3
106 68 39 36 3
-147 20 31 42 3
101 29 7 24 3
121 16 -26 8 3
-191 -24 -37 -15 2
-18 -15 -40 -20 2
158 6 -7 5 2
-131 -24 -57 -47 2
-63 28 -8 4 2
201 22 -21 2 2
-37 13 -4 8 1
-148 -1 -10 -2 1
148 3 -5 -9 1
47 6 0 0 1
-158 23 5 2 1
94 15 30 35 1
131 10 -11 -17 0
-162 4 -2 -29 0
10 27 70 91 0
187 15 2 25 0
-94 20 -13 -23 0
-98 -1 24 33 0
178 8 -20 15 0
-13 16 -19 52 0
-128 29 -6 6 0
131 10 11 -1 0
93 34 18 29 0
-169 18 1 17 0
41 3 -8 -9 0
155 20 8 6 0
-142 16 -3 8 0
-41 16 -5 -5 0
180 12 -7 -14 0
-81 -2 -28 -27 0
-124 4 -21 -11 0
162 -2 -45 -37 0
25 22 -23 6 0
-167 7 -33 -34 0
104 6 -8 2 0
99 8 -13 4 0
-167 0 -15 -8 0
13 2 20 -16 0
152 3 -13 -9 0
-136 8 -16 18 0
-40 36 13 37 0
185 18 7 20 0
-21 31 4 12 0
-144 -1 -16 -8 0
185 41 31 36 0
55 20 3 16 0
-184 -7 -22 -30 0
62 -21 28 51 0
89 -36 -37 -41 0
-143 19 -29 -6 0
13 22 -16 10 0
197 24 -8 4 0
-124 -6 -23 -19 0
-103 5 -2 -1 0
186 10 -9 2 0
-23 1 -14 -8 0
-163 -9 -15 -9 0
121 -6 -14 -10 0
86 26 8 15 0
-175 -6 -11 -10 0
83 20 -21 8 0
156 21 -17 15 0
-138 24 -27 15 0
-26 10 -3 21 0
201 28 51 32 0
-84 12 42 16 0
-112 23 26 -10 0
169 -3 6 11 0
14 18 -66 -14 0
-186 -7 -84 -15 0
117 0 -49 8 0
101 7 5 10 0
-177 2 56 9 0
33 7 35 5 0
157 16 0 8 0
-127 16 -42 3 0
-43 11 -31 13 0
207 29 26 35 0
-48 20 99 32 0
-113 13 88 -9 1
173 31 64 -3 1
40 14 -26 0 1
-152 15 -89 -2 1
109 7 -114 1 1
113 10 -65 -4 1
-160 3 -7 22 2
32 26 117 26 2
169 8 106 29 2
-118 8 44 20 3
-53 15 -15 9 3
182 10 -44 15 3
-32 20 0 6 4
-147 1 12 0 4
139 2 -18 -7 4
66 13 -78 -19 5
-163 16 -92 -14 5
76 6 -49 12 6
124 5 9 -7 6
-157 15 82 57 6
-13 7 -11 4 7
175 21 -77 0 7
-95 6 -14 23 8
-102 4 34 -5 8
174 17 33 0 9
-7 17 -47 -8 9
-150 4 -111 -26 9
137 9 3 -1 10
74 11 57 36 10
-162 16 114 37 11
59 15 105 30 11
177 37 65 33 12
-105 45 -16 21 12
-9 35 -181 -12 13
198 21 -206 -9 13
-92 4 -111 -44 13
-113 10 222 45 14
165 11 279 63 14
20 23 178 44 15
-160 8 23 -1 15
87 2 3 -1 16
73 13 32 22 16
-152 4 -138 -25 17
35 -6 -207 -18 18
156 7 -179 -52 18
-84 17 -13 32 19
-45 30 -38 19 19
210 41 5 46 20
-4 32 23 -30 21
-113 25 162 64 21
151 18 160 41 22
34 18 108 78 23
-173 1 -46 14 23
77 -2 -144 -44 24
95 -16 -158 -24 25
-196 -36 29 -42 25
-45 -45 83 -38 26
129 -26 -31 -84 27
-155 -32 -203 -71 28
-121 -40 -39 2 28
134 -29 79 14 29
-54 -7 84 20 30
-164 -7 -150 -39 31
164 9 -120 -10 32
63 20 -1 1 32
-172 9 118 4 33
81 16 -32 -5 34
154 17 -164 -45 35
-124 23 -208 -16 36
12 25 9 31 36
201 35 212 71 37
-65 45 108 25 38
-84 33 11 21 39
216 41 -25 20 40
23 31 130 42 40
-160 6 30 -26 41
110 4 -27 -5 42
84 2 -22 0 43
-154 20 0 49 44
80 14 -13 12 44
193 22 -47 16 45
-106 21 -4 9 46
-11 21 15 23 47
215 27 -70 -37 48
-67 16 5 9 48
-135 16 55 -4 49
117 22 237 79 50
-7 26 47 12 51
-177 12 -233 -44 52
62 -6 -287 -23 52
75 3 85 -12 53
-193 4 375 91 54
-6 10 36 4 55
151 16 -314 -45 56
-115 7 -244 -50 56
-53 5 103 -16 57
183 16 191 20 58
-12 22 115 56 59
-144 -7 -63 10 59
148 1 -107 -15 60
32 5 43 8 61
-160 8 -12 16 62
70 11 -60 4 62
165 33 -119 -48 63
-144 25 -193 -52 64
6 34 -29 -22 65
239 46 210 89 65
-87 33 213 92 66
-67 35 194 68 67
190 22 -26 10 68
-13 23 -93 -11 68
-160 0 -204 -38 69
142 -2 -193 -52 70
52 2 59 -35 71
-192 -4 357 52 71
65 10 194 70 72
153 11 -296 -60 73
-159 -6 -226 -52 74
-18 5 218 86 74
201 19 195 61 75
-81 0 -160 -3 76
-108 -5 -356 -83 77
167 8 -12 -29 77
17 32 184 65 78
-164 14 -17 -36 79
152 34 -67 13 80
97 26 -117 -4 80
-214 -17 -77 -13 81
-7 -22 188 42 82
140 2 340 50 82
-154 6 33 12 83
-47 11 -304 -70 84
236 48 -191 -16 84
-12 43 262 98 85
-153 18 215 85 86
157 -11 -319 -103 86
24 -21 -234 -102 87
-213 -11 278 75 88
125 13 74 9 88
113 5 -201 -27 89
-159 16 -287 -47 90
16 12 204 41 90
197 14 139 87 91
-126 16 24 -5 92
-95 -4 -145 -68 92
188 7 207 26 93
-48 16 247 60 94
-168 2 -223 -26 94
170 31 -313 -6 95
96 51 51 89 95
-130 48 228 68 96
135 33 -8 3 97
148 29 45 13 97
-146 32 21 29 98
16 1 -146 -70 98
173 -5 -104 -16 99
-64 12 157 54 100
-64 43 258 132 100
257 75 278 123 101
73 75 -68 45 101
-162 11 -268 -58 102
104 -15 -99 -38 102
29 -41 -158 -75 103
-216 -52 -322 -115 104
0 -35 -16 -72 104
188 16 223 4 105
-170 10 132 65 105
3 28 65 45 106
189 7 -142 -38 106
-90 8 119 15 107
-122 16 268 82 107
193 14 -44 44 108
78 44 -245 -74 108
-154 41 -60 12 109
206 92 117 153 109
234 126 305 164 110
-80 108 167 88 110
55 21 -27 -43 111
128 -52 -238 -141 111
-259 -84 -322 -107 112
-87 -32 -126 -27 112
177 2 -80 -26 112
-7 60 199 109 113
-120 15 -36 5 113
79 -49 -124 10 114
-29 -68 98 -66 114
-293 -118 -255 -180 115
5 -60 98 -70 115
40 -52 56 -1 115
-260 -76 -107 -69 116
-67 -55 -11 -59 116
153 -25 -131 -33 117
-161 -12 -96 -15 117
-151 -13 -164 -14 117
260 6 -252 -60 118
-20 20 -28 -20 118
-99 37 305 76 118
221 43 121 42 119
75 28 -85 -3 119
-208 15 -106 12 119
116 29 21 48 120
151 0 -118 -15 120
-168 17 335 135 120
-57 -12 55 -17 121
200 31 27 24 121
-78 34 95 67 121
-91 32 28 0 122
236 60 338 116 122
19 24 65 -6 122
-192 -11 -340 -66 122
146 15 -140 0 123
98 13 53 3 123
-211 -3 -1 -29 123
83 6 -117 -14 123
175 1 -263 -55 124
-159 -4 -209 -66 124
-48 10 56 49 124
198 14 -15 13 124
-41 62 330 144 124
-156 1 20 -59 125
232 9 226 82 125
19 33 9 17 125
-191 11 -103 -4 125
158 55 95 78 125
100 15 167 16 125
-213 0 90 5 126
37 -4 -189 -30 126
179 -3 -298 -80 126
-191 -3 153 106 126
1 26 242 45 126
229 30 195 48 126
-16 22 -89 -41 126
-167 -26 -364 -83 126
154 -2 52 47 127
37 18 -94 -15 127
-198 21 -193 -12 127
95 10 60 12 127
139 11 45 -4 127
-209 5 138 54 127
-21 -7 -35 -41 127
226 4 42 99 127
-140 20 -28 -61 127
-110 4 -9 -27 127
192 25 216 20 127
-7 21 44 8 127
-148 38 -97 10 127
168 17 -77 -27 127
97 15 63 46 127
-188 13 57 52 127
76 -14 -281 -87 127
77 -27 -114 15 127
-73 66 195 75 128
5 58 103 82 128
248 52 19 26 128
-39 36 -166 -27 128
-157 -30 47 4 128
127 -5 31 -16 128
-22 -9 43 26 128
-166 15 169 31 128
98 -10 -185 -84 128
57 -38 -82 9 128
-130 52 172 56 128
48 42 99 78 128
186 57 -225 -35 128
-83 23 -144 -22 128
-98 12 93 63 128
210 59 422 122 128
-8 17 167 10 128
-128 -19 -164 -89 128
156 -10 -166 -25 128
30 16 2 25 128
-188 -3 -90 -23 128
71 7 -29 -15 128
150 20 -124 -4 128
-174 -20 -209 -75 128
-8 0 12 15 128
189 34 263 103 128
-146 -10 33 -22 128
-101 16 113 55 128
219 3 -148 -48 128
-55 20 -57 10 128
-185 -6 84 56 128
171 18 63 60 128
66 24 111 47 128
-206 4 -70 -36 128
93 5 -66 -29 128
170 30 -13 23 128
-181 13 33 -8 128
-8 -2 -59 -19 128
190 -2 -130 -21 128
-125 2 -33 2 128
-120 -8 48 -3 128
208 5 77 4 127
-15 4 6 -4 127
-195 -4 -161 -60 127
172 20 5 35 127
82 13 52 2 127
-182 28 116 55 127
81 19 -38 -1 127
170 16 -29 19 127
-194 16 28 18 127
-32 1 -53 -6 127
240 31 60 39 127
-95 14 -37 -29 127
-141 1 -81 -12 127
217 13 58 35 126
10 9 -46 -13 126
-193 4 -21 14 126
142 4 49 1 126
118 19 -3 9 126
-227 -2 -11 -21 126
47 -4 -46 -26 125
145 -4 -89 -46 125
-135 16 15 46 125
-61 17 69 56 125
240 9 -2 14 124
-38 15 40 8 124
-160 8 34 15 124
190 12 -29 -3 124
25 32 -6 -7 123
-205 10 -18 8 123
116 9 -12 7 123
142 11 -44 6 123
-176 19 -30 19 122
-25 7 -30 -10 122
213 9 -69 -54 122
-139 9 -12 33 122
-84 1 46 4 121
215 19 140 71 121
-43 30 117 22 121
-160 24 -53 -4 120
167 20 -52 -8 120
111 26 -11 -8 120
-183 31 29 11 119
65 12 41 17 119
152 14 43 43 118
-177 5 -8 0 118
-22 9 -32 0 118
195 19 -34 -3 117
-73 33 1 19 117
-105 24 2 13 116
166 8 -29 -4 116
-1 17 -103 -32 115
-158 7 -66 16 115
113 18 34 35 114
100 16 -22 1 114
-181 2 42 -10 113
9 1 76 17 113
132 -14 60 8 112
-189 -28 61 -8 112
-88 -21 -44 -24 111
191 -2 -22 -13 111
-72 -11 -27 -28 110
-117 5 -8 -3 110
183 10 -31 -8 109
36 12 -29 2 109
-153 16 -2 16 108
125 20 -27 -4 107
147 26 29 38 107
-147 16 -22 -9 106
11 -5 -72 -26 106
213 14 -28 5 105
-113 24 18 30 105
-37 12 5 20 104
235 29 -6 27 103
-52 6 -124 -17 103
-143 13 -97 -28 102
181 20 56 21 101
44 25 187 40 101
-198 8 112 15 100
50 -4 5 -30 99
114 1 -28 -7 98
-178 -6 -22 -4 98
-25 0 0 3 97
184 21 -15 12 96
-115 15 39 27 96
-104 10 15 13 95
228 16 -36 -2 94
-17 4 -47 -10 94
-185 -12 -58 -24 93
196 11 -26 6 92
76 10 -27 -15 92
-185 5 -64 -2 91
67 0 -136 -25 91
154 20 -14 11 90
-180 5 95 16 89
-24 10 38 -42 89
212 11 -54 -37 88
-111 2 -132 -15 87
-148 -12 39 41 87
204 18 264 120 86
0 20 175 24 85
-193 6 87 11 85
140 6 -38 -10 84
88 1 -84 -17 83
-182 11 -52 -14 83
35 7 -50 -10 82
187 15 -56 -2 81
-153 6 -41 -5 81
-57 6 -33 -8 80
221 4 -33 0 80
-51 12 -16 3 79
-149 6 -30 -4 79
186 12 -68 -3 78
18 8 -66 16 78
-203 1 -10 -5 77
109 10 46 10 77
110 9 6 -8 76
-191 14 39 14 76
11 0 3 4 75
173 0 6 8 75
-137 5 59 22 74
-86 11 50 24 73
205 17 49 20 73
-10 28 12 17 72
-140 17 -73 -13 72
200 16 -36 9 71
51 23 3 12 70
-139 33 20 34 70
99 31 4 17 69
164 28 -30 8 68
-145 18 -36 8 68
-21 12 -52 10 67
172 2 -46 -4 66
-102 4 -37 -27 65
-90 12 -8 11 65
160 -3 43 15 64
8 24 85 35 63
-139 11 95 16 62
131 20 30 6 62
99 20 31 9 61
-155 19 -7 10 60
62 6 -25 -14 60
156 13 -60 -3 59
-162 -4 -39 -8 58
-74 -14 5 5 57
166 -8 -10 -8 56
-76 -5 -54 -9 56
-123 -11 -83 -16 55
148 -1 -27 -2 54
1 0 -46 -8 53
-204 -47 -93 -35 53
126 21 -82 2 52
111 18 -66 2 51
-114 49 40 43 50
58 38 177 69 49
213 44 161 58 49
-111 8 31 -3 48
-45 8 -29 3 47
182 14 -42 4 46
-49 20 36 23 46
-163 4 46 20 45
167 8 51 16 44
38 17 31 22 43
-169 8 -10 11 43
74 1 -59 0 42
96 3 -56 -2 41
-170 15 -44 -8 41
-18 -29 -71 -12 40
213 47 -22 34 39
-56 56 26 55 39
-74 24 11 20 38
125 -35 -56 -48 37
-16 0 -3 -5 37
-165 -25 -42 -25 36
174 42 -32 29 36
101 29 -23 24 35
-175 17 20 22 35
38 0 81 12 34
106 18 96 14 33
-162 32 13 -2 33
-56 -8 -17 -16 32
187 21 3 8 32
-98 0 -9 -10 31
-113 3 -20 -9 31
176 13 -16 4 30
-30 4 -25 -14 30
-156 0 -35 -7 29
118 -6 -37 -17 29
89 3 -22 -6 28
-164 -4 -35 -18 28
53 20 1 28 27
159 7 -1 8 27
-162 -16 -34 -20 27
-26 17 -2 13 26
165 1 9 18 26
-55 6 -12 4 25
-92 22 9 17 25
132 1 -22 -13 24
57 43 39 34 24
-130 33 22 36 23
110 17 2 21 23
105 -4 -21 0 22
-161 7 -13 9 22
12 6 -17 1 22
164 24 6 18 21
-122 4 -12 -11 21
-73 4 -4 -23 20
171 14 18 13 20
-18 26 -5 1 19
-132 14 12 23 19
161 20 -4 0 19
44 -7 -32 -27 18
-170 20 42 46 18
91 36 27 34 17
138 17 -11 10 17
-120 28 20 49 17
16 39 -10 12 16
152 4 -19 -17 16
-90 11 13 17 16
-59 34 20 40 15
180 35 16 26 15
4 11 8 15 15
-120 20 -5 -5 14
94 -13 -26 -27 14
64 9 11 16 14
-163 -1 -26 -20 13
39 -8 -18 0 13
139 10 -20 -19 13
-124 14 0 -9 12
-26 6 -22 -28 12
188 25 26 61 12
-57 18 -35 -9 12
-137 -16 -33 -13 11
154 1 -3 -8 11
29 28 24 35 11
-145 21 8 9 10
113 15 31 33 10
118 27 28 11 10
-143 31 7 21 9
17 13 -8 -20 9
212 63 112 105 9
-134 -4 -42 -41 8
-80 1 -30 -8 8
176 4 -30 -15 8
-80 -17 -16 -19 7
-133 15 -3 -24 7
152 18 28 24 7
32 8 -12 19 7
-186 0 -19 2 6
79 1 -19 -5 6
114 24 2 3 6
-155 5 2 7 5
4 16 -6 18 5
180 31 6 7 5
-108 9 -18 -12 4
-97 -6 -15 -10 4
184 22 -2 21 4
-30 15 20 28 4
-158 -1 -31 -46 4
139 9 0 -17 3
131 64 52 49 3
-147 25 2 37 3
102 38 48 71 3
139 4 -47 -16 3
-184 -20 -35 -24 2
-59 -21 -38 -23 2
182 20 -2 16 2
-95 -1 -3 -9 2
-115 0 -19 -9 2
170 19 -4 -8 2
-2 11 0 2 1
-167 -5 -26 -21 1
106 -9 -13 -22 1
80 0 -9 -52 1
-155 24 23 29 1
45 13 -29 1 1
168 25 -23 30 1
-137 3 -34 -23 1
-31 25 54 68 0
197 30 12 27 0
-60 16 -7 15 0
-110 17 0 8 0
151 -2 -13 -4 0
37 19 -2 4 0
-159 18 4 3 0
94 1 -10 -7 0
85 -21 -40 -26 0
-150 17 3 12 0
20 7 -4 4 0
163 23 -19 -41 0
-78 47 2 35 0
-57 36 36 51 0
205 46 -2 36 0
-20 26 2 21 0
-134 12 0 -1 0
