599 653 647 649 0
831 870 855 859 0
997 998 981 986 0
1052 1067 1051 1054 0
1066 1090 1074 1077 0
1061 1064 1050 1053 0
992 994 981 985 0
862 869 857 860 0
658 652 644 647 0
124 16 18 17 0
124 16 18 17 0
124 16 17 15 0
118 16 17 16 0
120 15 17 16 0
116 16 17 16 0
119 11 11 11 0
121 11 9 10 0
120 13 9 13 0
124 22 9 11 0
122 22 6 11 0
119 22 7 13 0
121 22 9 14 0
116 22 9 13 0
118 22 10 13 0
117 22 12 14 0
117 23 12 14 0
121 22 13 16 0
114 19 13 14 0
112 9 13 13 0
113 9 13 14 0
111 9 15 11 0
115 9 15 10 0
114 9 15 11 0
114 9 14 16 0
116 14 19 27 0
109 12 19 27 0
111 18 17 27 0
110 20 19 28 0
114 23 21 29 0
118 23 21 29 0
113 23 21 29 0
119 27 23 31 0
119 27 24 32 0
118 28 24 32 0
123 22 18 21 0
121 20 18 22 0
126 23 20 23 0
126 26 21 24 0
115 26 22 23 0
125 30 27 31 0
125 32 31 33 0
118 24 26 28 0
121 20 21 25 0
119 20 19 25 0
119 16 19 25 0
117 17 18 22 0
111 21 18 21 0
119 21 21 26 0
118 21 22 29 0
114 16 20 24 0
113 13 13 20 0
113 16 15 18 0
115 16 14 18 0
109 11 14 15 0
112 9 13 15 0
112 10 16 15 0
109 11 11 9 0
114 11 11 9 0
112 11 11 10 0
107 13 26 23 0
111 13 24 23 0
108 12 25 23 0
111 11 26 23 0
109 11 26 23 0
108 11 26 23 0
115 11 26 23 0
110 12 25 23 0
107 13 25 22 0
108 14 26 22 0
112 19 14 14 0
112 18 20 16 0
107 18 20 15 0
110 19 20 16 0
111 21 24 25 0
104 21 24 25 0
109 21 22 26 0
109 13 20 25 0
107 12 18 23 0
112 12 25 29 0
107 12 26 31 0
111 12 24 31 0
110 12 23 30 0
111 13 23 33 0
116 10 23 30 0
113 9 23 30 0
114 10 23 30 0
114 10 23 30 0
116 14 24 31 0
117 14 16 24 0
114 19 22 28 0
120 21 24 28 0
120 23 24 29 0
110 20 21 25 0
123 23 23 22 0
124 22 22 22 0
114 22 24 24 0
118 17 19 19 0
117 16 18 19 0
115 12 17 15 0
115 13 17 16 0
110 16 20 18 0
121 21 24 24 0
121 31 31 32 0
109 36 39 42 0
112 35 39 41 0
118 33 39 39 0
118 30 37 39 0
111 27 34 34 0
120 22 25 28 0
119 18 20 25 0
108 19 20 25 0
112 18 19 25 0
110 17 19 25 0
112 18 17 22 0
115 18 20 21 0
109 19 22 25 0
110 19 22 23 0
110 20 22 23 0
108 21 22 23 0
111 20 22 22 0
110 15 21 21 0
113 17 22 21 0
113 21 23 24 0
103 21 21 24 0
117 26 22 28 0
119 27 26 28 0
110 24 27 27 0
117 25 26 28 0
116 25 26 27 0
118 22 25 28 0
115 22 24 27 0
113 24 25 27 0
122 29 31 32 0
122 31 34 35 0
115 33 37 37 0
116 31 34 34 0
124 30 32 33 0
117 26 30 27 0
107 15 18 15 0
116 14 18 18 0
116 13 14 14 0
111 10 10 10 0
119 12 11 11 0
118 8 11 9 0
117 9 9 7 0
122 9 9 8 0
116 12 11 8 0
122 12 10 7 0
121 14 10 10 0
115 14 9 8 0
120 14 10 9 0
116 14 11 9 0
112 10 9 9 0
112 17 14 15 0
105 20 15 16 0
111 23 18 17 0
111 22 18 17 0
109 22 18 17 0
111 20 18 16 0
106 23 19 17 0
118 31 31 29 0
118 35 38 32 0
114 36 40 33 0
117 34 39 32 0
115 33 40 34 0
123 36 43 35 0
121 41 52 42 0
115 45 52 42 0
124 46 55 44 0
127 46 55 45 0
113 39 47 35 0
111 28 32 27 0
116 17 18 13 0
115 12 16 13 0
110 8 16 13 0
111 8 19 14 0
113 9 14 14 0
112 9 14 13 0
114 10 14 13 0
112 15 21 21 0
114 18 21 21 0
116 19 21 22 0
108 24 31 31 0
125 31 42 39 0
126 36 50 46 0
110 35 45 43 0
122 30 42 38 0
122 27 40 37 0
115 23 37 34 0
116 20 36 35 0
118 17 32 32 0
120 10 14 15 0
117 11 15 16 0
113 11 13 15 0
118 13 14 15 0
121 18 23 27 0
117 18 24 27 0
115 16 27 34 0
116 15 25 31 0
118 14 23 28 0
112 13 22 28 0
115 10 19 27 0
115 12 20 28 0
108 10 16 25 0
116 14 22 30 0
112 13 22 28 0
116 15 23 27 0
116 18 25 27 0
113 19 25 28 0
117 19 25 28 0
113 18 23 27 0
117 20 24 26 0
119 20 23 25 0
114 21 23 25 0
122 24 20 22 0
121 28 25 26 0
117 26 24 26 0
119 27 23 30 0
116 37 29 33 0
141 53 43 42 0
144 68 66 63 0
129 73 73 78 0
145 73 75 79 0
147 69 72 76 0
131 60 64 68 0
126 48 53 59 0
126 43 50 55 0
133 46 52 57 0
134 49 56 62 0
119 46 56 63 0
123 37 43 53 0
128 28 30 27 0
117 17 23 20 0
114 11 17 17 0
116 13 15 18 0
120 14 16 18 0
117 14 17 18 0
119 14 18 18 0
119 13 15 17 0
116 11 15 17 0
124 10 16 15 0
122 10 14 15 0
120 9 13 11 0
122 9 13 11 0
119 8 14 10 0
121 9 12 8 0
119 11 12 12 0
123 13 13 12 0
125 14 13 12 0
117 14 11 11 0
121 16 15 17 0
121 21 19 22 0
112 23 20 23 0
124 25 23 26 0
125 26 24 28 0
120 19 21 24 0
120 19 20 24 0
113 23 25 30 0
127 34 35 40 0
131 49 47 52 0
121 64 58 60 0
132 67 63 63 0
144 69 65 65 0
127 64 58 58 0
114 53 48 43 0
125 43 39 36 0
122 31 26 22 0
114 29 23 20 0
116 29 25 24 0
118 31 29 28 0
128 29 31 31 0
126 30 28 29 0
115 26 22 23 0
128 21 22 22 0
128 22 24 23 0
112 20 25 20 0
122 18 20 21 0
122 18 19 20 0
114 14 17 19 0
117 11 15 18 0
117 9 17 19 0
119 10 14 16 0
117 10 9 11 0
119 10 9 12 0
124 10 9 12 0
121 10 7 13 0
123 11 8 12 0
123 12 8 11 0
119 13 8 10 0
124 13 8 11 0
119 13 6 11 0
114 17 21 21 0
115 17 22 20 0
108 18 25 21 0
115 20 28 23 0
115 21 31 23 0
112 21 31 23 0
118 23 31 24 0
116 22 31 24 0
115 21 30 24 0
113 21 30 24 0
119 8 13 8 0
123 8 13 8 0
117 6 12 9 0
119 7 11 8 0
119 8 11 13 0
121 13 12 16 0
123 12 10 15 0
120 12 10 15 0
125 11 10 15 0
127 11 10 15 0
122 11 10 14 0
127 9 10 12 0
126 8 6 10 0
125 7 6 9 0
128 6 3 6 0
121 8 5 5 0
119 8 5 6 0
119 9 7 9 0
115 9 7 10 0
121 11 9 12 0
118 12 18 19 0
118 11 18 19 0
118 12 17 19 0
111 14 21 24 0
116 14 22 27 0
115 15 22 27 0
118 15 23 28 0
120 16 22 27 0
116 16 22 27 0
119 14 21 25 0
116 12 13 15 0
118 12 13 15 0
124 13 12 16 0
123 12 10 13 0
125 12 10 8 0
124 10 10 10 0
123 10 9 10 0
126 9 11 9 0
123 9 11 10 0
126 11 13 13 0
127 10 14 13 0
120 8 10 13 0
124 9 10 13 0
122 11 10 13 0
120 11 10 15 0
122 9 9 15 0
118 8 12 13 0
123 8 13 19 0
121 9 13 18 0
117 12 13 18 0
120 13 13 18 0
116 13 13 19 0
117 13 13 19 0
117 11 15 21 0
115 11 15 20 0
121 12 16 20 0
119 13 13 18 0
120 12 12 12 0
121 11 12 14 0
118 9 12 13 0
123 8 12 13 0
121 8 12 11 0
123 8 12 11 0
125 9 11 10 0
122 9 11 11 0
125 8 11 11 0
123 6 9 11 0
120 7 10 12 0
125 6 6 10 0
121 6 6 10 0
125 6 6 10 0
124 6 9 10 0
121 6 10 11 0
124 6 10 11 0
121 12 14 16 0
119 12 14 16 0
123 15 25 26 0
121 14 24 26 0
125 14 24 25 0
122 14 24 25 0
121 15 24 25 0
122 15 23 25 0
116 15 21 22 0
121 13 21 22 0
120 12 21 22 0
123 17 26 30 0
124 14 15 20 0
118 13 15 18 0
119 13 16 18 0
119 13 16 19 0
118 15 18 20 0
125 11 18 20 0
122 12 17 19 0
121 12 16 19 0
122 14 17 20 0
115 10 13 11 0
122 10 13 10 0
120 9 14 11 0
122 9 12 12 0
126 8 9 9 0
121 7 8 10 0
123 7 8 9 0
122 8 8 9 0
123 7 9 9 0
129 6 9 8 0
125 6 8 7 0
126 6 8 7 0
126 6 6 6 0
121 6 6 7 0
125 7 6 7 0
121 7 6 6 0
125 6 6 6 0
127 6 8 10 0
122 5 7 10 0
123 7 7 10 0
121 7 6 10 0
121 9 13 12 0
125 9 17 15 0
122 9 17 15 0
125 8 17 15 0
124 8 17 15 0
121 8 17 15 0
126 8 16 13 0
122 8 16 14 0
126 7 17 14 0
127 7 17 14 0
126 6 11 11 0
129 6 6 8 0
126 7 10 12 0
133 14 11 14 0
137 14 11 15 0
132 13 11 14 0
135 13 11 13 0
134 14 11 13 0
132 14 11 13 0
135 13 11 13 0
129 13 12 13 0
132 14 12 13 0
131 13 7 9 0
122 6 6 6 0
127 6 6 7 0
124 6 12 7 0
124 6 12 7 0
124 6 13 10 0
122 6 13 13 0
126 6 13 14 0
123 6 13 14 0
125 7 14 16 0
129 7 14 16 0
125 7 14 16 0
127 8 14 15 0
125 7 10 16 0
125 7 12 16 0
127 8 11 16 0
122 7 13 13 0
126 7 12 13 0
126 7 12 13 0
122 8 11 11 0
127 9 9 11 0
123 8 10 11 0
125 8 11 11 0
126 8 10 7 0
123 8 10 7 0
129 7 10 7 0
126 7 8 8 0
126 9 9 8 0
130 10 9 9 0
126 9 10 10 0
128 8 10 11 0
127 9 14 17 0
124 9 14 17 0
129 9 15 18 0
125 10 14 18 0
126 10 14 18 0
125 13 14 17 0
123 12 13 17 0
127 11 14 16 0
122 11 13 16 0
122 11 13 16 0
125 11 6 8 0
122 11 13 13 0
126 10 11 12 0
123 9 11 12 0
123 9 11 12 0
128 7 12 13 0
122 5 12 13 0
124 5 14 16 0
123 6 14 16 0
124 7 14 15 0
127 7 14 13 0
122 6 10 10 0
126 6 12 11 0
127 6 12 11 0
124 7 12 11 0
128 8 15 14 0
124 9 15 14 0
129 8 12 10 0
130 9 14 11 0
126 9 18 12 0
130 9 19 13 0
128 10 20 14 0
125 10 19 13 0
129 10 20 14 0
126 10 19 14 0
128 8 13 9 0
128 8 14 12 0
123 8 22 20 0
130 7 23 20 0
126 7 21 20 0
128 8 20 20 0
129 6 18 20 0
127 7 18 20 0
131 7 18 19 0
127 6 18 19 0
129 6 18 19 0
131 6 18 14 0
126 6 10 7 0
129 6 7 8 0
127 6 7 8 0
124 6 7 7 0
127 10 12 16 0
123 11 23 27 0
126 11 24 28 0
126 11 24 28 0
124 12 24 28 0
129 12 24 28 0
126 13 24 28 0
133 16 24 28 0
134 16 24 28 0
131 16 24 28 0
134 15 22 23 0
130 14 10 10 0
131 14 6 9 0
133 14 6 8 0
128 13 7 9 0
133 14 7 8 0
131 13 9 9 0
122 8 9 8 0
126 8 11 8 0
122 8 12 10 0
125 9 11 9 0
124 7 10 9 0
120 7 10 8 0
123 7 11 8 0
119 8 11 9 0
121 9 11 10 0
122 10 11 9 0
119 10 11 9 0
122 10 7 7 0
119 10 7 9 0
122 10 10 10 0
125 10 10 10 0
122 10 10 10 0
126 9 10 11 0
124 9 10 11 0
121 6 10 13 0
126 5 9 13 0
122 5 10 13 0
123 7 14 14 0
123 11 14 12 0
122 12 12 12 0
127 12 12 14 0
123 12 14 13 0
126 12 14 13 0
128 12 14 12 0
123 12 14 8 0
126 12 14 9 0
124 13 13 9 0
126 11 10 8 0
130 8 9 9 0
124 5 9 8 0
127 6 8 6 0
126 11 10 10 0
122 12 10 11 0
127 12 10 11 0
123 13 10 13 0
126 15 10 14 0
126 15 10 14 0
124 15 10 16 0
128 15 10 16 0
123 15 9 16 0
125 15 10 18 0
127 12 7 16 0
125 11 7 15 0
128 10 7 15 0
126 7 8 12 0
123 6 7 12 0
127 6 7 12 0
123 7 8 11 0
127 7 8 11 0
126 6 8 10 0
124 6 8 9 0
128 7 8 9 0
123 7 9 9 0
124 7 9 11 0
125 7 8 10 0
126 9 8 12 0
130 11 10 14 0
125 10 10 14 0
127 11 11 14 0
129 11 11 15 0
124 12 11 15 0
134 15 12 15 0
133 15 13 16 0
131 15 12 15 0
134 15 12 16 0
127 15 12 14 0
131 13 11 16 0
130 13 17 17 0
127 12 21 20 0
132 12 21 20 0
128 12 21 21 0
123 5 20 20 0
124 5 20 20 0
120 6 20 21 0
123 6 20 21 0
120 6 20 21 0
119 6 20 19 0
120 11 15 17 0
117 12 11 13 0
120 12 11 13 0
119 12 11 10 0
120 13 11 11 0
127 15 12 10 0
123 17 12 12 0
127 17 11 12 0
127 17 12 12 0
124 17 12 12 0
129 14 9 9 0
123 13 8 9 0
124 14 8 10 0
124 15 8 11 0
118 13 9 11 0
118 12 10 15 0
117 6 9 13 0
117 6 9 12 0
119 8 10 12 0
116 8 10 12 0
121 8 11 11 0
120 8 11 11 0
116 8 11 12 0
120 6 11 11 0
117 7 11 12 0
122 9 7 7 0
122 10 8 8 0
121 10 8 8 0
124 10 8 9 0
119 10 8 9 0
121 10 8 9 0
123 10 9 9 0
124 9 9 10 0
129 9 8 9 0
125 8 8 9 0
126 7 6 8 0
128 6 7 7 0
121 4 7 7 0
128 5 8 9 0
128 5 8 8 0
127 8 7 7 0
133 9 7 7 0
127 10 6 7 0
128 10 7 6 0
128 11 7 7 0
123 11 8 7 0
129 12 6 6 0
126 12 5 6 0
126 12 5 5 0
128 11 5 5 0
122 9 5 6 0
121 8 5 6 0
120 9 6 6 0
120 8 6 6 0
124 7 5 6 0
121 8 6 6 0
125 7 6 6 0
124 10 12 14 0
121 9 12 14 0
127 9 12 14 0
123 11 14 14 0
128 10 14 14 0
128 8 14 14 0
127 9 14 14 0
130 9 15 13 0
125 8 14 12 0
126 8 14 11 0
128 7 11 5 0
124 7 11 5 0
129 7 12 7 0
127 5 9 9 0
128 5 9 9 0
132 8 9 9 0
128 8 17 13 0
131 8 17 14 0
130 7 18 16 0
129 6 17 17 0
134 7 17 18 0
130 8 19 18 0
131 9 19 18 0
131 9 18 16 0
128 9 19 16 0
132 8 19 17 0
128 8 12 14 0
130 8 11 13 0
132 8 10 10 0
127 7 10 10 0
129 8 6 5 0
128 6 5 5 0
128 7 9 7 0
132 7 9 6 0
126 7 8 6 0
129 7 9 7 0
129 8 9 8 0
127 8 9 8 0
131 8 9 8 0
126 8 9 8 0
131 9 9 9 0
133 9 10 12 0
129 8 6 11 0
133 8 6 11 0
131 11 9 11 0
131 12 9 10 0
133 12 10 12 0
128 12 10 12 0
132 13 9 11 0
130 13 10 10 0
125 13 11 11 0
128 13 10 8 0
122 12 10 8 0
124 12 10 8 0
123 10 8 7 0
119 9 7 7 0
123 8 6 5 0
120 8 6 5 0
123 8 6 5 0
124 7 5 5 0
122 7 3 3 0
127 6 3 4 0
124 9 8 7 0
124 9 8 7 0
127 8 8 9 0
122 9 11 9 0
124 9 11 10 0
122 10 11 10 0
122 11 13 13 0
125 11 15 14 0
120 10 16 15 0
123 10 16 15 0
123 11 15 16 0
120 11 15 16 0
127 11 15 14 0
124 11 20 19 0
129 11 20 19 0
131 11 20 19 0
125 10 19 17 0
129 9 17 16 0
126 11 16 15 0
123 11 16 15 0
126 10 17 16 0
122 10 17 16 0
124 9 17 16 0
121 9 12 11 0
117 9 12 10 0
121 9 13 10 0
117 10 13 10 0
120 9 13 12 0
120 7 13 12 0
120 6 13 12 0
126 6 11 11 0
122 5 10 10 0
122 5 10 10 0
124 4 10 10 0
120 8 10 9 0
122 10 10 9 0
119 11 9 9 0
120 11 8 8 0
124 12 7 8 0
120 13 7 7 0
120 13 16 15 0
119 13 17 15 0
119 13 17 15 0
124 13 19 15 0
122 11 19 16 0
126 9 19 15 0
127 8 20 16 0
123 8 20 16 0
124 9 21 16 0
122 12 22 17 0
124 12 14 11 0
125 13 14 11 0
122 13 15 11 0
126 13 12 11 0
123 13 12 11 0
125 13 12 11 0
127 13 11 11 0
126 14 12 11 0
133 13 11 11 0
130 9 12 13 0
127 9 12 13 0
132 7 12 14 0
125 7 9 12 0
125 7 10 12 0
126 8 10 12 0
124 8 10 12 0
128 8 10 13 0
123 7 10 12 0
124 7 11 12 0
127 7 7 7 0
121 7 7 7 0
125 6 6 7 0
124 6 6 7 0
123 7 6 7 0
127 7 6 7 0
121 10 6 7 0
125 9 6 7 0
124 9 7 8 0
119 9 7 8 0
122 9 10 7 0
121 9 10 8 0
125 10 10 8 0
126 11 10 10 0
121 10 11 10 0
127 10 11 11 0
124 8 10 11 0
122 7 10 11 0
125 7 8 10 0
123 6 8 10 0
127 6 5 10 0
125 4 5 8 0
122 5 5 8 0
125 5 8 7 0
121 5 6 6 0
126 6 9 7 0
126 7 9 7 0
124 6 9 7 0
127 7 9 7 0
122 7 10 8 0
125 7 11 8 0
126 7 11 10 0
123 8 12 13 0
128 8 13 13 0
125 8 15 14 0
123 6 14 14 0
126 6 13 13 0
122 6 13 13 0
125 6 13 13 0
124 7 12 13 0
120 8 12 13 0
125 7 12 11 0
120 8 11 8 0
125 8 9 8 0
125 8 5 7 0
122 8 5 6 0
124 9 5 6 0
120 9 6 6 0
122 9 6 7 0
125 8 6 6 0
123 9 6 6 0
127 8 6 5 0
124 7 4 5 0
125 9 6 6 0
130 10 9 9 0
127 10 9 9 0
131 10 9 9 0
130 10 9 9 0
127 11 10 10 0
132 11 10 12 0
128 13 11 12 0
129 13 11 12 0
129 13 12 13 0
124 12 12 13 0
125 10 9 9 0
120 10 8 10 0
123 7 7 10 0
126 7 7 9 0
121 7 7 9 0
122 14 8 8 1
119 13 8 7 1
124 15 12 11 1
125 15 10 8 1
120 14 10 9 1
126 14 10 8 1
125 14 10 9 1
122 14 9 9 1
125 14 9 10 1
123 13 8 10 1
126 11 8 10 1
126 9 8 10 1
123 9 5 12 1
127 9 5 12 1
124 10 9 17 1
125 10 9 17 1
128 11 10 16 1
123 11 10 16 1
128 11 10 16 1
126 12 10 18 1
125 12 11 24 1
130 13 13 25 1
125 11 13 23 1
129 11 13 23 1
129 11 11 21 1
124 11 11 21 1
128 10 11 20 1
125 11 10 21 1
127 11 11 21 1
127 10 10 19 1
125 12 9 13 1
127 11 6 10 1
123 11 6 10 1
122 11 7 10 1
125 9 7 9 2
121 9 6 9 2
129 11 8 12 2
128 9 10 13 2
123 10 11 13 2
127 10 10 11 2
124 10 10 11 2
126 10 10 11 2
126 13 10 9 2
122 13 8 8 2
125 15 8 9 2
120 13 8 9 2
120 14 8 8 2
121 14 10 8 2
119 14 10 8 2
125 13 9 8 3
122 14 10 9 3
121 13 11 11 3
122 13 11 12 3
119 12 12 12 3
126 13 13 13 3
124 13 15 14 3
122 12 15 14 3
128 15 18 18 3
126 17 19 21 3
126 15 18 20 3
125 12 13 14 3
126 10 13 14 3
131 10 13 14 3
128 11 15 14 3
129 11 17 16 3
131 11 17 16 3
127 10 17 17 3
132 8 15 14 3
128 8 13 11 3
131 9 12 13 3
134 11 12 14 3
127 11 13 16 3
131 11 13 16 3
130 11 13 16 3
126 11 11 16 3
130 12 11 16 3
126 11 10 13 3
125 12 8 12 3
125 8 7 11 3
120 8 6 10 3
123 8 6 9 3
122 8 7 8 3
121 8 7 8 3
123 8 6 7 3
122 10 6 6 3
128 10 6 6 3
126 10 7 7 3
127 9 8 9 3
130 9 8 8 3
126 9 8 8 3
132 8 9 9 3
131 7 8 8 3
127 7 7 8 3
131 7 8 8 3
127 4 8 9 3
126 4 10 9 3
126 4 10 9 3
122 4 9 7 3
124 10 9 9 3
119 10 14 12 3
122 10 13 11 3
123 10 13 14 3
116 14 13 13 3
123 13 14 13 3
121 13 14 13 3
124 14 17 17 3
125 19 17 17 3
121 19 19 18 3
130 21 21 21 3
129 21 20 19 3
128 21 20 21 3
134 21 19 18 3
133 18 19 17 3
133 15 15 14 3
135 15 14 13 3
131 16 13 14 3
139 15 16 18 3
136 15 16 19 3
139 15 16 18 3
141 15 15 19 3
134 11 13 16 3
138 11 12 16 3
136 11 13 16 3
137 14 15 18 3
139 14 16 22 3
134 12 15 20 3
134 12 15 19 3
134 12 15 19 3
130 11 16 19 3
133 14 17 18 3
129 14 17 18 3
134 15 17 20 3
137 16 17 19 3
129 14 15 18 3
134 13 9 12 3
132 13 9 11 3
134 13 11 12 3
136 13 11 13 3
128 13 9 12 3
134 9 8 11 3
132 9 9 12 3
128 6 8 8 3
130 4 8 9 3
127 4 8 8 3
129 5 8 9 3
129 7 9 10 3
126 7 8 10 3
129 7 9 10 3
125 7 9 11 3
128 8 9 11 3
129 8 10 12 3
125 8 10 12 3
128 8 10 12 3
124 8 10 12 3
128 8 10 12 3
133 7 10 11 3
128 7 11 10 3
133 7 8 10 3
132 6 7 7 3
128 6 8 6 3
131 6 7 4 3
126 5 7 5 3
128 6 5 6 3
128 7 4 6 3
124 6 8 10 3
124 7 8 11 3
120 7 7 11 3
121 7 7 11 3
124 7 7 11 3
122 7 7 11 3
127 7 8 11 3
125 7 8 10 3
124 7 8 10 3
125 13 12 12 3
118 13 9 8 3
125 12 10 9 3
124 14 10 9 3
122 14 11 9 3
125 14 11 9 3
123 18 11 9 3
125 19 13 10 3
125 19 15 12 3
125 19 16 15 3
133 17 15 14 3
130 17 15 14 3
131 17 14 13 3
133 15 14 13 3
129 15 14 13 3
136 15 14 13 3
131 11 12 13 3
131 9 12 12 3
135 7 10 11 3
129 8 6 9 3
134 7 5 11 3
133 9 6 15 3
126 12 8 17 3
128 15 8 18 3
124 15 7 18 3
126 17 7 17 3
126 17 7 16 3
124 18 7 16 3
129 18 8 14 3
127 19 10 15 3
127 19 10 15 3
130 19 9 12 3
128 15 9 9 3
136 14 9 9 3
134 14 9 8 3
132 10 9 8 3
136 10 9 9 3
131 8 9 9 3
135 10 9 7 3
133 12 9 6 3
130 11 9 5 3
135 11 9 6 3
131 11 7 5 3
132 11 6 5 3
133 12 12 7 3
125 16 21 15 3
130 17 21 15 3
127 17 21 15 3
130 17 25 17 3
133 15 25 17 3
130 15 25 19 3
131 15 24 18 3
129 14 24 17 3
131 14 23 17 3
134 14 23 17 3
132 12 17 14 3
133 12 17 14 3
134 12 17 13 3
127 6 5 7 3
134 7 8 10 3
129 11 9 10 3
134 11 10 12 3
135 14 10 13 3
128 12 9 10 3
134 11 9 11 3
133 11 8 10 3
131 11 7 10 3
134 11 6 7 3
130 10 5 5 3
130 7 5 6 3
129 7 4 6 3
130 8 5 6 3
132 6 5 6 3
126 7 5 6 3
130 8 5 6 3
130 8 6 6 3
126 8 7 7 4
131 8 7 7 4
127 8 6 8 4
127 7 6 8 4
129 7 5 7 4
122 7 5 6 4
127 7 5 6 4
125 10 8 11 4
122 10 8 10 4
128 11 9 12 4
126 10 9 11 4
127 10 9 11 4
126 9 9 10 4
124 9 8 10 4
128 9 7 9 4
124 10 9 10 4
130 10 9 10 4
130 10 8 8 4
127 10 9 8 4
133 10 9 8 4
131 13 12 13 4
125 25 21 21 4
135 34 33 32 4
144 38 39 38 4
141 38 39 38 4
134 33 34 34 4
139 31 31 32 4
140 28 27 28 4
131 25 26 27 4
132 27 25 27 4
137 35 36 38 4
148 43 44 44 4
143 43 44 43 5
127 39 40 40 5
142 39 41 40 5
141 40 40 39 5
121 36 36 35 5
139 31 31 31 5
143 31 31 30 5
129 27 25 26 5
133 24 24 25 5
132 23 23 23 5
136 22 21 20 5
133 22 20 20 5
131 27 27 26 5
142 37 34 34 5
146 42 39 37 5
139 41 37 34 5
135 32 31 29 5
134 29 27 24 5
142 30 31 28 5
140 33 34 34 5
133 41 41 41 5
139 46 45 46 5
145 49 46 46 5
136 45 42 40 5
123 35 31 29 5
135 26 24 24 5
136 20 16 18 5
134 23 19 20 5
128 43 43 43 5
134 63 65 64 5
176 87 89 86 5
170 93 98 95 5
151 98 102 98 5
175 94 100 95 5
172 88 94 89 5
136 72 78 73 5
142 52 57 53 5
142 31 33 29 5
139 23 27 22 5
139 25 30 23 5
123 24 32 23 5
139 32 41 31 5
143 37 46 35 5
127 40 47 38 5
137 41 45 39 5
141 38 40 38 5
131 36 35 35 5
126 30 29 31 5
129 25 24 26 5
128 20 17 18 5
116 10 10 9 5
123 8 10 8 5
123 9 10 8 5
120 9 10 8 5
124 8 8 8 5
123 9 9 8 5
126 8 8 7 5
129 9 8 7 5
129 9 7 7 5
132 10 9 9 5
128 9 9 9 5
133 11 11 11 5
136 11 11 11 5
130 10 11 9 5
134 8 8 7 5
133 8 8 6 5
133 8 8 5 5
136 9 9 5 5
131 9 9 5 5
136 10 10 8 5
136 16 14 13 5
126 14 12 11 5
133 13 11 12 5
130 13 10 12 5
130 12 8 11 5
132 13 7 9 5
127 13 7 9 5
132 13 8 9 5
129 14 8 8 5
128 14 8 8 5
132 10 5 5 5
127 10 5 5 5
130 10 6 6 5
130 9 6 8 5
132 12 12 11 5
135 12 13 12 4
129 13 14 14 4
135 15 16 15 4
135 17 19 17 4
131 17 18 17 4
138 15 17 17 4
137 14 15 13 4
132 11 10 7 4
135 9 7 6 4
130 11 8 11 4
131 7 7 10 4
129 6 7 10 4
125 6 7 10 4
130 7 6 10 4
122 6 6 10 4
121 13 11 13 4
122 16 13 14 4
128 23 24 20 4
127 28 27 22 4
118 27 28 19 4
125 26 26 18 4
125 26 25 20 4
120 22 22 18 4
128 19 21 19 4
128 11 14 13 4
136 22 23 25 4
136 31 31 32 4
123 38 40 40 4
134 37 40 40 4
134 39 40 41 4
139 40 42 43 4
141 40 42 42 4
135 43 44 43 4
141 44 43 43 4
140 46 45 46 4
126 43 44 44 4
136 37 39 38 4
136 20 21 22 4
133 13 13 14 4
133 16 17 18 4
125 16 17 18 4
129 16 17 19 4
128 18 19 19 4
119 17 21 20 4
124 15 20 18 4
125 17 17 14 4
124 15 16 14 4
123 15 16 13 4
127 19 18 16 4
129 20 20 18 4
119 19 20 20 4
130 14 12 14 4
131 15 11 12 4
128 14 11 12 4
133 12 10 12 4
130 15 11 12 4
127 13 8 13 4
129 12 10 14 4
123 11 10 14 4
129 14 16 14 4
132 26 23 20 4
125 27 23 20 4
132 28 25 22 4
130 28 25 22 4
128 29 24 21 4
124 22 19 17 4
130 22 16 17 4
130 19 13 17 4
121 13 7 13 4
131 13 11 15 4
131 11 11 14 4
126 11 12 14 4
131 12 12 14 4
130 11 12 13 4
138 18 14 16 4
140 18 14 15 4
133 20 15 17 4
139 20 16 18 4
138 20 16 18 4
129 18 13 13 4
135 19 14 12 4
136 21 18 15 4
131 18 17 14 4
128 11 14 11 4
122 11 14 11 4
124 12 12 10 4
119 12 11 10 4
131 14 13 13 4
131 13 11 12 4
125 11 11 11 4
129 11 10 9 4
125 11 10 9 4
127 12 9 9 4
130 13 9 9 4
126 11 10 9 4
134 16 20 16 4
134 24 28 26 4
118 25 28 28 4
125 27 28 28 4
125 27 27 27 4
122 27 25 26 4
120 24 23 24 4
123 24 22 22 4
124 14 16 14 4
119 15 14 12 4
122 15 14 12 4
124 15 11 11 4
126 15 11 11 4
129 16 27 12 4
124 16 37 12 4
129 15 39 13 5
130 15 45 18 5
123 11 68 25 5
127 9 83 26 5
125 10 89 27 5
120 9 89 26 5
124 9 89 26 5
121 10 88 26 5
122 10 80 22 5
122 10 66 18 5
120 9 51 15 6
124 9 60 17 6
120 9 61 16 6
122 7 51 15 6
124 6 42 16 6
123 7 58 20 6
124 9 65 20 7
120 11 66 20 7
120 11 67 21 7
124 12 66 21 7
120 12 66 20 7
123 12 65 21 7
121 14 63 20 8
118 14 60 21 8
123 14 61 20 8
117 14 52 13 8
123 13 47 13 9
122 11 40 10 9
121 13 54 15 9
124 12 92 16 9
120 10 112 17 9
123 8 115 17 10
124 7 113 17 10
122 6 111 17 10
125 7 110 17 10
122 6 105 15 11
125 8 93 11 11
128 8 87 10 11
121 5 90 9 11
127 6 73 9 12
126 7 43 10 12
123 7 29 11 12
127 7 33 13 12
125 7 41 14 12
126 7 42 15 13
126 9 48 19 13
119 11 51 23 13
126 13 59 24 13
124 13 74 24 13
121 13 74 24 14
123 12 74 25 14
121 11 77 25 14
123 9 79 22 14
120 7 76 20 15
119 7 79 21 15
122 7 76 20 15
118 6 73 18 15
122 6 71 15 15
120 8 54 15 16
121 10 48 15 16
127 10 54 14 16
123 10 68 15 16
123 11 106 17 16
123 11 111 17 17
119 11 105 13 17
126 10 101 12 17
124 12 100 13 17
122 11 102 14 18
124 11 112 17 18
118 10 112 17 18
119 9 103 18 19
116 9 102 19 19
119 8 70 17 19
122 8 69 21 20
120 9 85 24 20
121 8 85 26 21
120 5 94 24 21
118 5 110 26 21
122 5 107 25 22
118 5 105 24 22
121 5 105 24 22
124 5 103 25 23
120 7 103 25 23
125 7 91 22 23
122 6 64 18 24
121 6 61 18 24
124 6 82 23 25
120 6 85 21 25
125 7 84 24 25
124 8 94 31 26
120 7 93 32 26
123 7 103 31 27
118 6 104 32 27
121 7 117 38 27
120 7 111 38 28
118 6 111 40 28
123 8 109 42 29
122 11 102 41 29
119 11 104 40 29
120 11 96 34 30
119 10 103 35 30
124 11 96 34 31
121 12 98 34 31
121 11 82 22 31
123 10 77 22 32
120 11 76 21 32
124 10 70 19 33
120 7 69 20 33
124 7 70 20 33
125 11 73 20 34
118 10 81 25 34
119 10 96 26 35
119 11 94 30 35
119 14 108 41 35
123 15 115 43 36
119 15 122 47 36
122 14 124 49 37
123 14 125 49 37
118 14 123 49 37
125 11 120 48 38
123 11 118 46 38
125 11 101 45 38
126 11 103 44 39
120 9 91 33 39
121 9 83 29 40
121 9 76 25 40
116 9 71 21 40
119 10 73 21 41
112 9 65 24 41
116 9 66 25 41
117 8 57 21 42
113 6 74 21 42
117 6 79 20 42
115 8 81 20 43
118 8 78 21 43
119 9 74 22 44
113 9 78 21 44
118 8 81 24 44
117 10 107 29 44
115 11 110 31 45
119 11 111 31 45
114 11 98 30 46
122 12 85 29 46
119 10 85 28 46
122 11 106 32 46
124 11 129 38 47
120 12 129 37 47
120 12 137 41 48
122 11 121 37 48
118 12 118 38 48
123 13 122 38 49
121 17 135 43 49
117 16 169 53 49
119 14 173 54 50
113 15 163 53 50
124 20 146 47 50
124 22 140 48 51
126 22 139 46 51
127 23 144 48 52
121 26 138 47 52
135 34 140 55 52
133 34 136 56 53
134 35 111 53 53
136 35 102 54 54
131 36 119 54 54
134 35 130 54 54
133 37 132 56 55
126 42 152 63 55
144 46 147 64 56
146 43 147 63 56
129 29 136 50 57
130 18 138 37 57
129 17 137 43 57
132 18 152 54 58
129 22 145 53 58
126 22 128 52 59
133 22 128 53 59
134 22 117 49 60
125 18 116 48 60
124 15 126 46 61
131 15 117 37 61
130 13 118 37 61
122 14 148 47 62
136 22 142 48 62
136 27 142 52 63
121 28 135 48 63
136 31 144 54 64
136 32 144 52 64
125 31 167 50 65
126 30 196 54 65
120 43 196 61 66
147 59 197 64 67
153 77 174 71 67
137 85 188 85 68
151 86 199 87 68
156 82 195 80 69
137 71 177 60 69
128 58 170 48 70
131 42 169 45 70
133 39 145 50 71
132 42 154 57 71
122 42 145 57 72
122 33 149 57 72
125 22 141 48 73
121 15 123 38 73
116 12 136 42 74
124 14 139 51 74
124 17 141 52 75
118 18 139 51 75
128 19 153 50 76
128 21 148 47 76
122 22 145 48 77
127 20 148 43 77
126 17 141 37 78
127 14 158 49 78
125 13 145 51 79
122 13 168 54 79
131 13 189 59 80
130 14 178 59 80
126 13 174 60 81
127 12 172 61 81
125 10 172 62 82
131 11 173 59 82
129 12 184 64 83
125 10 169 58 83
129 8 189 60 83
125 8 179 63 84
125 8 162 59 84
124 6 171 59 85
125 5 165 58 85
128 5 164 57 86
124 6 166 57 86
128 5 159 56 87
128 3 163 50 87
124 3 170 50 87
130 4 153 44 88
128 9 150 41 88
130 10 150 43 89
131 10 154 52 89
123 13 155 51 89
131 13 172 53 90
129 12 171 53 90
125 12 171 53 91
129 13 156 52 91
127 13 155 53 91
129 13 148 53 92
128 11 132 45 92
128 10 130 46 92
134 10 121 45 93
131 10 118 46 93
130 9 99 42 94
131 9 93 43 94
122 11 120 46 94
135 15 116 43 95
134 22 132 51 95
129 25 182 66 95
134 27 182 66 96
133 26 201 66 96
133 25 199 62 97
128 20 215 63 97
132 18 225 62 97
139 20 231 64 98
138 25 222 63 98
132 28 218 62 98
132 25 217 60 99
134 22 186 45 99
134 18 213 47 99
128 17 201 52 99
132 17 196 51 100
134 17 177 40 100
123 10 168 38 100
130 12 167 39 101
128 12 186 46 101
127 11 180 45 102
131 11 169 44 102
129 12 167 45 102
128 12 156 49 103
125 14 191 53 103
122 14 191 53 103
127 14 193 54 104
126 16 172 51 104
126 15 164 51 104
126 14 153 45 105
124 14 162 45 105
129 15 165 41 105
124 12 162 39 106
128 12 161 36 106
129 12 105 20 106
128 12 105 21 107
132 12 121 23 107
129 12 122 23 107
128 12 144 31 108
131 13 144 33 108
129 11 138 33 108
130 10 128 31 109
128 9 135 29 109
128 12 154 41 110
134 12 153 42 110
127 12 168 50 110
128 12 151 51 111
128 12 151 54 111
127 12 142 53 111
130 13 147 55 112
125 13 152 57 112
126 13 169 69 112
128 14 182 76 113
123 12 185 82 113
126 13 202 88 113
125 16 194 85 114
128 18 242 101 114
131 18 244 101 114
126 19 265 103 115
128 20 265 101 115
127 20 269 102 115
128 19 256 94 116
134 17 237 87 116
129 17 229 81 116
134 17 244 81 117
135 16 247 81 117
128 12 207 63 117
133 13 211 63 118
130 13 188 60 118
137 17 210 66 118
139 17 202 63 119
131 17 219 64 119
134 17 226 64 119
133 19 241 62 119
130 19 214 51 120
136 19 209 51 120
132 18 211 41 120
130 15 204 39 120
128 13 209 40 121
130 14 179 32 121
137 18 193 32 121
133 18 177 31 121
136 19 169 34 121
138 18 139 32 122
133 18 137 32 122
140 18 166 39 122
137 18 149 42 122
141 19 157 42 123
142 21 152 42 123
135 26 220 57 123
138 24 220 65 123
136 24 255 69 123
135 24 252 67 123
138 24 260 68 124
132 25 263 70 124
135 25 261 68 124
137 27 266 78 124
139 27 265 78 124
145 25 265 78 124
138 17 191 62 125
137 17 199 63 125
139 16 163 57 125
134 16 165 59 125
137 14 148 58 125
135 12 135 55 125
131 13 103 53 126
132 10 83 34 126
124 8 83 34 126
127 9 146 44 126
126 15 139 42 126
125 16 196 43 126
128 19 241 48 126
125 20 253 51 126
132 20 291 62 127
132 21 298 60 127
129 25 330 69 127
135 26 355 81 127
130 27 353 81 127
129 25 338 73 127
129 23 361 85 127
128 24 353 90 127
132 22 332 89 128
128 22 334 89 128
128 22 297 78 128
131 20 296 78 128
126 18 272 76 128
129 15 230 62 128
128 14 227 61 128
130 15 211 59 128
136 9 159 43 128
129 8 136 31 128
130 7 143 42 128
131 6 131 39 128
124 6 132 42 128
127 10 111 38 128
123 12 107 36 128
128 17 109 40 128
130 18 114 41 128
124 16 114 41 128
129 17 114 41 128
127 17 115 42 128
129 17 103 33 128
132 16 84 33 128
131 16 91 31 128
135 15 92 31 128
133 14 90 31 128
129 11 89 26 128
133 11 80 25 128
128 12 80 23 128
129 11 75 24 128
130 11 64 22 128
127 12 66 21 128
131 12 71 20 128
126 11 83 23 127
130 11 89 23 127
132 11 89 26 127
126 7 90 26 127
132 7 90 26 127
130 7 87 27 126
129 7 85 26 126
133 7 81 26 126
128 6 64 25 126
132 6 64 25 126
131 7 49 21 125
129 7 43 22 125
133 7 47 16 125
128 6 55 19 125
128 6 63 20 125
129 6 63 20 124
127 6 69 21 124
131 6 71 22 124
128 5 73 23 124
130 10 85 35 123
132 9 83 33 123
127 9 79 36 123
131 9 82 36 123
130 9 79 35 122
130 9 74 36 122
135 10 74 35 122
129 10 68 34 121
132 9 66 33 121
131 9 57 30 121
126 5 49 22 120
131 6 49 22 120
129 5 30 10 120
131 5 28 11 119
131 4 30 9 119
127 4 46 14 119
132 5 48 17 118
131 7 51 23 118
130 8 57 26 118
133 8 59 31 117
128 9 68 36 117
132 9 71 37 116
130 9 90 47 116
128 9 97 47 115
132 9 95 47 115
129 8 83 46 114
131 8 84 46 114
130 7 87 45 113
127 6 86 43 113
131 6 83 41 113
128 5 70 35 112
129 3 71 34 112
130 3 47 14 111
126 2 24 9 111
132 3 18 9 111
128 3 18 6 110
130 5 21 13 110
133 6 45 20 109
131 8 50 22 109
132 8 66 25 108
130 8 72 28 108
130 8 78 30 107
134 10 79 31 107
129 10 78 31 106
129 10 86 32 105
130 11 86 35 105
124 10 86 34 105
128 10 64 29 104
124 10 54 27 104
127 10 56 26 103
128 10 54 24 103
121 10 50 22 102
127 6 50 18 102
125 7 49 18 102
125 7 20 12 101
127 6 20 8 101
122 6 23 10 101
128 6 20 13 100
126 3 23 16 100
123 4 34 21 99
129 4 34 21 99
126 7 62 32 98
125 7 65 33 98
126 7 83 47 97
123 7 97 48 96
127 8 109 48 96
124 8 106 48 95
123 8 103 46 95
124 8 104 46 94
122 8 105 44 94
124 8 106 44 93
122 5 84 36 92
125 3 76 33 92
126 3 72 16 91
124 5 59 13 91
123 6 26 8 90
122 6 21 7 90
119 6 22 10 89
127 6 21 9 89
123 6 35 17 88
127 5 37 17 87
127 5 48 20 87
121 4 49 23 86
127 5 50 24 85
122 5 49 23 85
126 4 55 23 84
128 4 69 23 83
124 6 73 23 83
125 8 72 23 82
122 12 55 13 81
117 12 49 12 81
123 12 51 11 80
120 12 53 10 80
126 12 56 11 79
124 13 59 12 78
126 12 57 12 78
128 10 38 12 77
123 10 26 12 77
126 11 19 11 76
128 10 20 8 76
129 11 20 13 75
129 12 20 15 74
124 11 20 14 74
124 11 23 14 73
125 11 62 31 73
117 11 76 33 72
125 10 76 33 71
125 8 73 34 71
119 7 70 35 70
121 7 70 35 70
117 7 69 33 69
120 7 70 31 69
120 6 69 31 68
114 6 72 33 68
120 6 53 18 67
117 6 27 9 67
115 5 20 9 66
117 5 23 14 66
113 6 31 15 65
115 8 30 17 65
110 10 29 18 64
117 12 32 21 64
118 12 33 20 63
115 11 33 18 63
120 9 33 18 62
119 8 50 21 61
120 8 73 26 61
122 9 76 26 60
118 12 82 29 60
126 14 85 32 59
126 13 84 34 59
120 10 84 32 58
126 8 86 34 57
124 8 85 33 57
124 9 85 33 56
125 9 78 29 56
118 10 46 15 55
124 11 26 13 55
122 10 25 13 54
118 8 25 11 54
122 8 35 11 54
119 9 38 15 53
120 11 39 14 53
117 10 39 13 52
116 10 43 13 52
120 10 46 13 51
117 14 45 16 50
124 14 30 15 50
125 14 22 14 49
124 16 26 13 49
126 17 28 13 48
122 19 31 15 48
126 20 37 16 47
126 25 49 25 47
119 26 53 25 46
122 26 52 25 46
121 22 51 22 45
116 16 51 20 45
116 31 51 28 44
107 34 42 31 44
122 38 36 39 43
122 37 36 39 43
111 36 35 38 42
114 29 34 31 42
112 26 33 29 41
113 25 38 28 41
112 30 47 29 40
105 33 50 30 39
115 26 49 28 39
116 27 61 31 38
104 21 60 20 38
106 20 60 19 37
107 15 60 15 37
110 16 56 17 36
109 15 55 17 36
114 13 54 12 35
116 13 44 13 35
112 13 32 14 34
122 14 30 15 34
120 13 18 14 33
120 17 17 15 33
127 17 17 17 32
123 23 13 19 32
126 20 18 17 32
124 22 36 23 31
116 20 35 21 31
124 19 34 21 30
123 19 33 20 30
122 25 33 23 29
126 25 33 23 29
122 25 35 23 29
121 24 35 19 28
121 21 37 20 28
121 20 39 20 27
126 19 33 15 27
121 19 32 15 26
127 20 32 15 26
126 20 32 16 26
117 11 30 11 25
119 10 31 11 25
115 10 29 11 24
122 14 25 12 24
123 14 25 13 24
122 14 22 12 23
124 14 17 12 23
123 14 16 13 22
119 13 16 12 22
122 14 15 11 22
118 14 15 9 21
120 14 15 9 21
119 14 14 10 20
115 12 13 10 20
118 11 12 10 20
112 12 11 9 19
115 12 10 8 19
115 16 12 11 19
115 16 15 13 18
117 15 15 14 18
116 15 14 13 18
114 16 18 15 17
116 16 24 23 17
110 16 26 22 17
115 16 26 23 16
113 16 26 23 16
113 16 27 23 16
117 13 26 22 15
112 12 25 21 15
114 17 33 30 15
111 15 33 30 14
118 13 28 28 14
121 13 31 32 14
117 13 27 32 13
119 13 27 32 13
119 13 27 32 13
119 14 27 33 13
121 15 28 33 12
115 17 30 34 12
122 11 21 25 12
124 11 21 24 12
115 9 17 16 11
120 9 13 12 11
118 16 14 14 11
116 16 10 9 10
117 16 10 9 10
114 19 10 10 10
121 20 10 11 9
121 19 9 11 9
118 19 10 11 9
121 19 16 16 9
116 19 16 16 8
117 19 17 17 8
120 17 17 16 8
125 19 17 16 8
130 19 26 25 7
125 15 26 28 7
122 16 26 28 7
124 16 24 29 7
122 17 22 29 6
124 18 21 28 6
123 18 22 28 6
122 18 24 28 5
125 18 26 29 5
119 18 30 29 4
121 18 19 16 4
120 18 18 15 4
122 18 18 16 3
128 21 17 16 3
125 25 27 37 3
126 25 26 36 2
127 25 27 36 2
124 25 29 36 2
126 24 29 35 2
117 23 33 38 1
121 22 32 38 1
121 21 31 38 1
112 14 29 37 1
117 14 30 39 1
114 12 29 27 0
121 19 24 28 0
122 19 29 28 0
116 25 35 31 0
118 27 35 31 0
118 29 31 25 0
118 29 31 24 0
129 30 33 27 0
129 30 34 27 0
125 28 28 30 0
124 28 25 39 0
116 30 46 41 0
127 32 45 40 0
127 29 44 39 0
132 27 44 40 0
136 23 42 39 0
131 23 42 45 0
127 18 36 41 0
122 13 34 40 0
125 11 33 37 0
130 10 35 31 0
128 9 22 27 0
127 11 24 27 0
127 11 21 26 0
134 28 25 23 0
136 27 19 23 0
130 26 18 18 0
134 25 12 14 0
136 25 13 14 0
134 26 13 15 0
141 25 13 15 0
138 26 14 16 0
139 26 14 18 0
140 27 14 17 0
126 14 7 10 0
130 12 5 9 0
129 11 9 11 0
125 12 9 11 0
128 13 9 11 0
121 13 9 12 0
121 8 9 13 0
121 13 12 14 0
117 13 12 13 0
120 13 12 13 0
119 17 14 15 0
121 17 14 14 0
121 16 9 11 0
118 15 10 10 0
125 18 15 14 0
123 18 15 15 0
122 18 15 14 0
125 15 14 15 0
121 16 17 15 0
124 18 16 15 0
120 11 13 13 0
117 11 13 12 0
122 11 13 13 0
118 11 13 13 0
120 10 12 10 0
121 10 13 10 0
117 10 13 10 0
121 10 15 8 0
117 8 16 7 0
121 4 16 6 0
122 5 16 6 0
118 5 19 7 0
122 5 23 7 0
121 6 26 7 1
119 6 30 6 1
123 6 27 6 1
119 6 28 6 1
124 7 33 5 1
123 7 36 6 1
117 12 39 8 1
121 12 39 12 2
116 13 39 13 2
119 13 38 13 2
120 12 37 13 2
113 13 32 13 3
118 13 31 13 3
114 14 35 15 3
113 13 39 18 3
115 14 60 28 4
114 7 76 29 4
120 7 83 28 4
120 13 146 43 4
118 14 178 46 5
123 13 181 47 5
119 13 179 47 5
123 13 182 48 6
122 12 185 47 6
120 12 187 46 7
124 12 181 39 7
121 13 167 36 7
123 13 169 38 8
122 7 133 23 8
119 6 73 15 9
123 7 30 10 9
121 8 48 11 10
126 11 51 12 10
126 14 51 12 11
121 15 50 13 11
125 16 51 19 12
124 16 62 21 12
118 17 64 20 13
120 16 64 18 13
115 18 61 20 14
116 17 73 21 14
115 19 79 21 15
103 20 83 30 15
115 25 93 37 16
116 26 90 39 16
110 25 92 37 16
110 23 90 36 17
113 17 92 34 17
119 17 94 34 18
117 19 98 34 18
117 19 87 31 19
124 21 73 31 19
122 21 73 28 20
124 18 75 21 20
120 14 98 18 21
120 13 102 16 21
124 14 100 13 21
120 14 99 13 22
123 15 99 20 22
123 15 98 21 23
119 15 92 22 23
121 14 118 29 24
117 14 123 29 24
113 16 126 32 25
116 17 129 36 25
121 21 124 36 26
119 25 125 37 26
112 22 127 38 27
114 22 142 42 27
117 21 144 42 28
117 24 153 46 28
118 25 135 40 29
119 27 127 43 29
118 27 130 43 30
120 27 122 41 30
113 25 127 42 31
119 20 130 41 32
119 16 131 36 32
114 13 109 27 33
120 14 97 26 33
114 13 101 30 34
119 13 99 29 34
119 24 108 36 35
111 29 174 67 36
127 38 200 77 36
128 43 197 79 37
118 44 197 77 37
119 44 194 76 38
115 46 192 77 38
119 43 188 75 39
117 43 174 69 39
111 47 162 69 40
124 51 165 69 41
132 58 123 56 41
115 53 107 49 42
109 43 118 37 42
117 27 117 32 43
114 28 121 29 43
108 28 119 27 44
111 26 125 30 44
113 22 131 30 45
108 22 123 29 46
109 29 112 37 46
103 30 114 37 47
113 31 103 32 47
115 30 91 32 48
111 30 94 34 48
125 33 96 39 49
125 29 100 39 49
119 24 91 31 50
125 22 68 27 50
123 20 68 22 51
124 20 64 17 51
125 20 65 17 51
122 19 53 14 52
127 19 51 18 52
121 20 62 24 53
119 14 58 20 53
122 11 56 20 54
119 11 89 21 54
125 11 86 21 54
124 10 93 26 55
125 10 117 30 55
128 9 120 32 56
122 7 119 31 56
123 11 135 32 57
123 10 196 35 57
127 19 208 38 58
129 19 213 38 58
123 17 204 34 59
128 17 215 37 59
129 17 217 36 60
123 17 208 36 60
128 16 203 30 61
126 15 199 31 61
132 15 198 33 62
133 13 150 30 62
124 6 128 29 63
130 8 149 36 63
129 9 141 36 64
122 9 133 34 64
128 12 131 36 65
125 10 131 37 65
127 10 145 41 66
126 9 143 38 66
122 10 127 33 67
125 10 146 43 67
122 12 228 58 68
121 13 207 54 68
124 13 212 55 69
122 14 210 55 70
125 12 232 59 70
123 12 233 56 71
122 11 225 49 71
126 11 235 57 72
119 9 239 61 73
129 8 235 57 73
127 9 170 44 74
124 9 170 44 75
127 8 164 44 75
123 9 170 44 76
125 10 115 36 77
124 12 85 30 77
120 12 105 33 78
125 12 98 28 78
121 12 102 32 79
120 11 106 33 79
122 7 115 30 80
123 5 142 42 80
126 7 147 44 81
124 9 137 45 81
124 8 139 43 82
127 7 139 42 82
124 6 138 42 83
128 6 135 42 83
127 6 157 41 84
121 8 155 40 84
127 8 161 39 85
123 8 162 32 85
124 7 160 34 86
124 5 196 45 86
123 6 195 46 87
127 7 220 51 87
124 7 221 55 88
124 6 243 56 88
125 8 230 54 89
121 8 236 53 89
126 8 255 55 89
123 8 243 54 90
126 9 256 55 90
130 9 224 45 91
123 8 229 46 91
127 7 217 44 92
126 6 214 39 92
124 6 189 39 92
130 5 183 38 93
128 5 179 38 93
130 5 146 35 94
131 6 152 35 94
125 9 143 32 94
130 9 159 31 95
125 9 163 29 95
131 12 156 29 95
131 14 156 30 96
125 12 155 26 96
130 12 162 35 97
128 11 159 33 97
126 11 158 51 97
130 11 131 48 98
127 11 181 64 98
145 15 180 67 99
145 15 179 70 99
144 14 195 72 99
147 11 207 76 100
145 16 234 82 100
145 17 234 81 101
146 17 245 84 101
141 17 244 74 101
146 19 251 79 102
142 21 241 72 102
138 21 264 74 102
140 20 258 70 103
129 19 281 71 103
137 18 278 70 104
137 17 289 72 104
136 17 298 74 104
138 16 311 73 105
135 16 312 74 105
135 15 313 72 105
135 14 335 73 106
122 14 322 72 106
127 15 372 90 107
125 15 340 84 107
125 14 346 86 107
127 17 340 89 108
124 16 337 88 108
128 17 329 87 108
125 16 314 85 109
127 17 303 83 109
129 17 274 81 109
123 17 269 80 110
127 13 202 57 110
126 15 213 58 110
118 15 199 55 111
122 14 181 44 111
119 14 166 37 111
118 11 121 26 112
119 11 134 33 112
115 12 147 35 112
119 12 138 36 113
120 11 137 38 113
128 13 130 38 113
128 13 97 37 114
120 20 97 38 114
132 20 94 40 114
131 21 116 44 115
132 21 121 44 115
133 22 111 40 115
129 24 138 40 115
141 33 208 58 116
137 34 227 59 116
127 33 257 61 116
138 34 259 66 117
142 32 282 82 117
123 29 299 80 117
120 25 310 89 117
113 29 324 101 118
130 35 325 103 118
133 35 352 112 118
126 32 318 106 118
129 35 320 112 119
126 35 301 110 119
143 54 302 119 119
153 84 356 152 120
150 94 347 157 120
164 94 336 146 120
170 90 311 131 120
147 87 365 143 121
130 82 359 145 121
132 78 408 157 121
137 72 411 147 121
131 71 423 142 122
120 75 424 142 122
121 71 409 130 122
143 72 426 136 122
130 69 453 146 123
119 64 465 145 123
135 41 403 114 123
132 39 413 122 123
114 37 386 120 124
123 37 378 123 124
123 35 356 121 124
118 33 353 122 124
122 33 330 120 125
116 29 299 114 125
130 37 281 96 125
129 38 276 96 125
129 37 289 97 125
133 39 299 93 126
133 43 398 127 126
129 47 400 130 126
131 47 421 128 126
127 47 440 130 126
134 47 440 129 126
130 48 453 133 127
129 42 430 131 127
129 39 420 128 127
121 37 405 121 127
131 31 399 116 127
130 29 319 92 127
130 26 311 87 127
135 21 279 79 127
132 17 235 65 127
131 14 236 60 128
130 14 220 63 128
123 14 220 62 128
128 14 220 63 128
123 14 219 61 128
121 9 145 39 128
123 8 143 39 128
120 8 148 41 128
123 7 118 43 128
122 8 118 43 128
121 8 90 41 128
123 8 88 35 128
121 8 91 36 128
128 7 89 36 128
127 7 78 36 128
125 13 64 34 128
129 13 58 33 128
124 13 53 32 128
127 12 61 28 128
127 11 85 30 128
124 13 114 31 128
130 13 126 31 128
124 12 123 26 128
123 12 129 25 127
124 12 127 25 127
121 8 127 21 127
126 7 122 18 127
124 7 117 19 127
124 7 104 18 127
126 8 97 16 127
121 5 70 14 127
127 8 42 12 126
125 11 42 13 126
124 11 31 14 126
129 10 30 14 126
125 10 27 14 126
125 9 99 38 125
126 9 101 46 125
123 10 131 53 125
128 11 145 57 125
124 13 149 57 124
123 12 151 61 124
125 11 151 60 124
121 12 151 60 123
129 12 152 60 123
128 11 152 60 123
133 9 99 40 122
135 5 100 37 122
128 6 87 32 122
133 6 68 25 122
132 4 57 23 121
132 4 47 11 121
137 4 47 11 120
132 4 47 12 120
133 6 49 16 120
133 5 44 15 119
124 5 27 13 119
128 5 35 17 118
127 5 34 18 118
127 8 39 18 117
130 8 47 27 117
127 9 57 29 116
127 9 60 29 116
125 9 85 31 115
123 9 94 29 114
127 9 95 29 114
124 9 98 30 113
134 9 88 27 113
134 9 87 27 112
132 4 92 29 112
132 4 91 21 111
125 7 79 18 111
135 8 80 17 110
136 9 60 13 110
129 8 26 12 109
135 8 27 13 109
133 10 28 17 108
125 10 43 24 107
126 11 44 25 107
120 11 50 27 106
128 11 73 32 105
128 12 82 32 105
124 11 81 33 104
128 10 80 33 103
124 10 78 32 103
125 10 79 34 102
125 4 81 35 101
126 5 69 31 101
133 5 64 30 100
129 5 64 28 100
132 5 46 20 99
133 5 21 16 99
126 5 18 16 98
129 5 19 13 97
128 4 11 12 97
129 8 15 15 96
130 10 15 14 96
120 13 15 16 95
127 15 16 18 94
126 17 18 17 94
125 16 39 19 93
130 14 65 21 92
128 13 70 19 91
131 11 67 12 91
130 11 67 12 90
127 11 67 13 89
133 12 66 14 89
132 11 67 17 88
128 9 68 18 87
131 6 67 20 87
122 5 67 20 86
126 8 50 15 86
123 9 37 12 85
125 11 29 9 85
127 12 30 10 84
120 12 19 9 83
122 12 11 9 83
121 12 12 11 82
119 12 12 11 82
122 13 19 21 81
118 13 21 24 80
121 12 21 24 80
122 9 42 28 79
118 9 61 27 78
123 8 83 31 77
121 7 81 30 77
123 7 78 30 76
125 7 77 27 75
122 7 76 25 75
128 5 80 24 74
127 5 84 24 74
127 5 84 24 73
128 3 82 20 73
122 3 72 21 72
126 3 29 8 72
125 4 15 10 71
123 4 12 10 71
129 6 12 11 70
125 8 14 12 69
125 8 13 12 69
127 8 16 12 68
119 9 20 12 68
126 10 25 11 67
124 10 25 10 66
125 10 25 9 66
127 9 32 11 65
125 9 36 11 65
126 9 39 15 64
124 8 37 15 63
121 8 31 13 63
126 8 35 13 62
126 6 42 13 61
125 6 46 15 61
124 6 48 16 60
123 6 50 16 60
129 7 47 15 59
123 7 40 15 59
127 7 23 7 58
129 9 11 5 57
128 8 12 5 57
129 8 12 6 56
125 11 19 11 56
125 14 26 10 55
131 14 53 19 54
126 14 71 27 54
128 13 79 26 53
126 14 77 26 52
126 14 73 25 52
128 12 73 24 51
121 12 68 24 51
123 10 69 24 50
123 9 73 26 50
126 8 78 28 49
125 8 75 28 49
120 10 62 21 48
123 13 43 20 48
124 13 18 16 47
116 12 11 13 47
123 11 10 10 46
122 10 13 8 46
121 8 14 9 46
125 5 14 9 45
117 7 16 12 45
118 7 16 13 44
117 16 15 15 44
112 17 13 16 43
117 17 13 16 43
117 19 14 17 42
117 17 20 17 42
118 17 56 19 42
120 15 77 19 41
123 14 78 19 41
121 14 77 19 40
127 12 77 13 40
128 10 77 12 39
125 9 78 12 39
130 9 77 12 38
126 7 76 13 38
124 7 77 14 37
125 6 66 13 37
118 7 40 12 36
119 7 20 11 36
117 7 19 11 36
114 9 16 11 35
120 10 16 12 35
118 12 14 13 34
120 12 15 13 34
119 11 13 10 34
117 11 12 10 33
121 11 11 10 33
118 11 8 9 32
123 11 8 9 32
125 10 9 9 32
121 10 9 9 31
126 11 9 9 31
123 10 9 9 30
120 10 8 8 30
121 14 14 14 30
115 18 18 17 29
122 19 19 17 29
122 18 19 17 29
121 21 19 18 28
123 21 20 21 28
120 22 21 22 27
119 20 20 21 27
119 20 19 21 27
113 23 22 23 26
120 21 20 20 26
118 18 16 17 25
115 17 14 15 25
117 15 14 15 24
109 13 13 15 24
116 14 14 13 24
114 13 13 13 23
111 13 13 14 23
115 13 13 13 22
116 8 7 10 22
116 8 8 10 22
116 8 8 10 21
115 8 7 9 21
119 7 7 7 20
114 6 7 6 20
113 8 16 18 20
113 9 19 24 19
112 9 24 30 19
119 8 29 34 19
115 9 38 39 18
121 9 37 40 18
122 11 40 41 18
117 10 39 40 17
122 11 39 40 17
121 11 39 41 17
121 11 38 39 16
125 9 35 34 16
121 10 34 31 16
124 11 28 24 16
123 14 21 19 15
118 14 21 17 15
125 12 14 14 15
122 11 13 14 15
124 11 12 14 15
126 9 9 12 14
124 10 10 12 14
128 9 11 10 14
127 12 15 16 14
123 14 14 15 14
126 12 15 13 14
120 12 15 14 14
122 12 16 14 13
121 13 16 14 13
120 14 15 15 13
125 14 16 16 13
120 13 17 17 13
121 13 17 17 13
122 12 14 13 13
122 10 15 13 12
126 10 13 14 12
122 10 13 13 12
126 9 12 13 12
129 9 13 15 12
124 8 13 14 12
127 7 12 12 11
125 7 10 10 11
123 8 10 11 11
126 8 11 12 11
121 8 13 21 10
127 12 14 22 10
127 12 18 22 10
122 13 17 27 10
125 13 17 27 9
120 12 20 28 9
122 14 21 28 9
122 14 20 29 9
120 14 20 28 8
126 14 20 29 8
122 16 20 23 8
126 18 22 26 7
127 19 21 28 7
123 19 21 23 7
127 19 21 22 6
125 19 18 21 6
124 17 16 20 6
130 17 16 19 6
127 15 15 17 5
127 13 14 16 5
127 14 29 30 5
123 13 30 42 4
129 11 31 46 4
125 11 33 46 4
126 11 34 46 4
128 11 34 47 4
123 10 34 47 4
125 8 34 48 3
122 8 34 48 3
123 8 34 46 3
125 8 23 40 3
115 6 20 18 3
121 8 17 13 2
120 8 14 13 2
118 9 13 14 2
120 10 15 18 2
122 16 14 15 2
124 16 15 14 2
124 16 15 24 1
119 19 18 24 1
127 20 38 24 1
127 21 40 28 1
125 21 42 28 1
127 21 42 28 1
126 21 41 28 1
131 21 40 26 0
121 10 38 27 0
123 8 37 27 0
125 7 38 19 0
125 11 33 19 0
127 11 20 22 0
125 10 18 16 0
123 11 17 22 0
126 10 18 22 0
119 10 19 22 0
124 10 19 21 0
124 10 19 28 0
120 9 19 30 0
126 9 19 30 0
121 8 20 30 0
124 8 19 28 0
126 7 19 28 0
125 5 11 20 0
129 4 11 18 0
127 6 9 18 0
127 6 7 19 0
131 8 13 15 0
124 10 14 13 0
125 10 14 14 0
124 12 13 11 0
124 16 14 14 0
127 16 14 14 0
122 16 15 16 0
125 15 15 16 0
125 15 15 16 0
121 15 18 22 0
122 15 16 20 0
120 14 15 19 0
125 15 15 19 0
127 13 15 19 0
120 9 13 14 0
128 9 12 14 0
126 8 11 13 0
124 8 9 11 0
128 8 14 11 0
126 8 16 5 0
132 7 21 6 0
131 8 20 6 0
127 7 25 7 0
132 8 34 7 0
127 6 38 7 0
131 8 40 7 0
132 8 40 7 0
129 8 40 8 1
132 8 39 8 1
128 8 37 9 1
128 8 34 10 1
130 8 34 10 1
126 8 33 9 2
126 9 26 9 2
125 9 26 10 2
118 8 29 8 2
120 8 37 6 3
115 8 36 11 3
118 7 53 18 3
118 7 66 18 4
116 9 68 19 4
119 9 68 20 4
116 10 68 20 4
121 9 74 21 5
122 10 76 20 5
117 10 68 21 6
123 10 61 23 6
121 11 73 22 6
120 10 69 16 7
123 11 66 26 7
118 11 65 26 7
123 11 66 25 8
121 9 72 26 8
121 9 66 25 8
124 8 56 25 9
119 8 57 24 9
119 12 57 23 9
119 9 61 24 10
119 10 66 24 10
122 10 67 21 10
117 10 90 26 11
121 11 90 26 11
122 11 90 27 11
115 11 93 28 12
119 10 107 41 12
118 6 115 43 12
122 8 112 42 13
124 8 100 39 13
118 10 90 39 14
123 10 91 39 14
122 11 86 39 14
117 10 101 41 15
122 10 102 41 15
118 8 103 41 16
121 6 94 31 16
121 4 82 29 17
120 8 84 28 17
120 10 83 29 18
115 10 109 39 18
117 10 117 39 19
119 10 114 38 19
113 9 104 37 20
117 9 105 39 20
116 7 107 35 21
118 8 106 33 21
119 8 106 34 22
114 7 99 33 22
120 5 100 32 23
120 10 98 34 23
116 10 96 35 24
122 10 95 35 25
119 10 99 35 25
123 10 95 32 26
122 10 88 31 26
115 11 81 34 27
120 11 81 36 27
116 11 82 35 28
118 13 81 38 28
119 11 60 30 29
116 11 55 29 29
121 12 57 33 30
120 17 50 34 31
113 18 47 35 31
120 19 47 33 32
119 16 53 27 32
118 15 62 20 33
116 15 63 20 33
118 15 68 21 34
123 16 82 22 35
120 22 72 19 35
114 31 72 16 36
117 36 73 23 36
123 40 88 32 37
121 40 96 37 37
116 39 93 35 38
123 35 82 34 39
123 26 74 29 39
111 17 78 29 40
116 17 76 31 40
115 25 86 36 41
123 27 87 39 41
124 27 89 41 42
114 22 78 36 43
122 20 64 28 43
122 17 70 29 44
114 15 77 32 44
119 12 81 30 45
118 10 74 27 46
120 10 83 27 46
121 7 79 24 47
119 7 81 22 47
127 8 80 18 48
124 9 78 17 49
125 9 83 18 49
129 10 101 18 50
126 9 95 10 50
129 10 93 11 51
127 9 93 10 52
127 9 81 10 52
129 8 73 17 53
122 8 88 17 54
122 8 121 24 54
123 7 141 26 55
116 7 137 25 55
117 5 144 35 56
113 4 147 37 57
116 4 147 36 57
117 5 146 36 58
116 5 162 41 58
117 5 162 40 59
113 5 169 40 60
117 7 157 39 60
118 7 158 43 61
114 7 161 43 61
120 7 152 40 62
120 8 150 40 63
115 9 149 43 63
119 9 152 44 64
112 9 141 43 65
116 9 143 44 65
116 9 131 44 66
107 9 130 42 66
116 8 95 32 67
115 10 92 44 68
115 9 94 43 68
116 9 101 43 69
116 9 125 43 70
118 9 137 41 70
115 7 137 39 71
117 5 158 48 71
121 5 162 46 72
118 6 156 46 73
117 5 156 47 73
116 5 152 38 74
120 7 153 39 75
123 8 167 52 75
117 7 159 53 76
121 7 162 56 76
121 8 162 57 77
120 8 152 55 78
125 9 142 54 78
123 7 150 57 79
128 7 153 59 80
129 7 153 58 80
120 6 152 59 81
124 7 140 50 81
122 6 129 46 82
119 7 162 54 82
123 10 212 69 83
118 11 213 65 84
117 11 215 65 84
117 11 213 64 85
113 11 220 63 85
118 11 220 64 86
114 11 243 68 86
115 9 232 65 87
115 10 228 61 87
111 10 212 57 88
116 9 161 39 88
112 9 166 48 89
118 9 156 47 89
119 9 159 45 90
116 9 174 51 90
120 12 176 53 91
120 13 147 47 91
119 14 146 47 92
123 9 138 46 92
121 8 147 47 93
124 10 147 47 93
124 10 131 39 94
117 10 129 37 94
123 10 130 37 95
118 10 106 39 95
122 10 116 38 96
122 10 136 50 96
121 9 139 49 97
126 10 140 49 97
123 12 149 57 98
119 8 154 56 98
122 8 169 60 99
118 9 173 62 99
122 9 170 64 99
120 12 180 64 100
117 12 172 64 100
123 12 157 55 101
117 13 177 58 101
122 13 177 59 102
122 13 178 52 102
123 12 175 52 102
125 12 170 46 103
122 12 171 45 103
122 14 190 49 104
127 13 186 46 104
121 14 183 46 105
126 14 185 48 105
125 13 149 40 106
123 13 175 53 106
124 13 165 52 106
120 14 178 54 107
126 13 173 58 107
125 14 188 60 108
128 11 168 55 108
130 12 196 60 108
126 14 239 68 109
129 14 245 70 109
129 15 271 75 110
128 15 257 68 110
134 15 264 80 110
131 15 258 80 111
129 16 259 80 111
131 15 252 78 112
122 16 252 75 112
123 16 243 73 112
121 15 198 72 113
114 15 200 76 113
118 16 176 75 113
107 16 193 83 114
114 18 181 71 114
113 18 235 74 115
115 18 233 73 115
116 18 278 82 115
114 17 290 82 116
122 20 292 90 116
122 20 293 85 116
121 19 288 76 117
124 18 292 77 117
123 19 300 89 117
113 16 308 87 118
114 16 287 102 118
109 18 293 107 118
122 17 250 100 119
120 16 238 104 119
119 15 231 99 119
121 14 239 97 119
123 15 239 98 120
129 15 231 98 120
128 15 205 82 120
130 13 185 82 121
134 13 170 66 121
131 11 146 54 121
130 11 149 54 121
133 11 127 46 122
127 11 118 46 122
135 10 95 43 122
129 13 95 48 123
124 13 90 38 123
127 13 109 41 123
122 18 116 44 123
125 18 108 42 123
123 18 109 46 124
124 19 104 45 124
127 19 97 50 124
123 19 140 57 124
124 20 153 59 125
123 17 160 58 125
123 17 168 66 125
130 20 156 64 125
128 17 146 59 125
132 18 156 69 126
134 18 158 70 126
129 17 159 72 126
134 17 153 66 126
130 17 133 64 126
129 17 144 75 126
132 16 139 73 127
129 17 151 67 127
128 15 156 70 127
127 12 148 60 127
126 14 152 60 127
128 15 171 60 127
120 18 165 58 127
113 23 205 73 127
113 24 201 72 128
113 27 179 56 128
115 27 187 56 128
111 26 174 56 128
114 26 186 59 128
116 26 185 59 128
110 25 180 53 128
112 24 163 51 128
112 22 166 56 128
117 17 127 44 128
121 16 128 46 128
116 13 123 47 128
122 13 116 47 128
121 13 132 48 128
117 13 111 41 128
121 13 112 43 128
115 14 103 38 128
117 13 89 37 128
117 10 79 28 128
111 10 78 27 128
117 10 95 26 128
112 10 95 26 128
114 10 95 26 128
116 10 75 26 128
113 9 74 26 128
121 9 72 23 128
119 8 71 23 128
120 7 77 24 128
121 8 74 20 128
118 8 79 19 128
126 10 65 21 127
126 10 74 28 127
120 9 74 29 127
122 9 71 29 127
119 9 86 34 127
119 10 85 34 127
118 11 93 38 127
115 13 86 37 126
123 13 85 36 126
121 13 86 38 126
114 11 80 36 126
117 11 70 30 126
113 10 71 28 125
119 10 71 28 125
116 7 50 21 125
116 7 55 21 125
118 6 43 17 124
115 6 44 18 124
114 5 43 18 124
114 5 42 12 124
113 5 49 13 124
115 7 53 16 123
114 7 52 18 123
117 7 53 17 123
118 7 54 18 122
111 8 50 21 122
117 6 55 18 122
115 7 57 17 121
121 8 61 16 121
122 8 80 18 121
116 8 72 16 120
122 7 78 22 120
120 9 83 25 120
117 9 82 25 120
122 8 83 25 119
121 8 84 22 119
122 8 79 22 118
121 9 78 22 118
118 9 77 22 118
125 8 42 20 117
122 9 31 20 117
127 9 28 17 116
128 8 31 13 116
124 10 64 20 115
127 14 74 24 115
123 14 73 25 115
123 14 89 26 114
125 14 89 26 114
121 13 91 25 113
124 14 92 24 113
123 14 86 26 112
119 13 91 27 112
124 13 92 27 112
120 12 77 23 111
124 4 66 15 111
124 4 66 14 110
124 4 48 14 110
127 5 48 12 109
122 5 42 12 109
127 5 32 12 108
128 6 28 11 108
121 6 49 21 107
127 6 60 25 107
125 7 64 25 106
124 7 63 24 106
126 7 64 27 105
121 11 64 29 104
131 13 65 29 104
130 15 59 27 103
124 14 55 27 103
129 14 52 31 102
127 13 53 27 102
124 12 47 22 101
124 8 44 22 101
120 7 40 20 100
129 12 39 21 99
128 14 39 20 99
125 14 40 20 98
126 13 30 19 98
120 13 22 17 97
124 12 31 21 97
122 11 30 23 96
122 11 51 28 96
125 11 52 30 95
124 11 57 29 94
123 9 66 31 94
120 6 66 31 93
119 5 60 30 92
126 7 58 29 92
122 7 61 30 91
133 7 64 28 91
137 6 62 23 90
137 6 53 17 90
136 5 53 13 89
132 5 48 16 89
130 5 29 12 88
133 6 22 11 87
128 6 21 10 87
134 6 23 12 86
132 5 23 12 86
123 4 41 17 85
123 4 59 24 84
118 5 63 25 83
123 5 63 25 83
124 4 60 24 82
126 5 60 23 81
130 6 60 23 81
128 7 56 23 80
127 7 48 20 79
128 7 48 20 79
126 8 50 22 78
129 8 36 14 77
125 8 30 12 77
129 8 43 12 76
131 6 48 12 75
127 6 54 14 74
131 6 65 14 74
129 7 72 14 73
128 7 71 13 72
131 7 71 14 71
125 6 79 23 71
135 8 79 24 70
135 8 76 23 69
132 6 62 21 68
136 6 40 19 67
131 7 42 20 67
131 7 47 21 66
132 8 43 21 65
130 8 43 20 65
133 8 42 17 64
129 7 34 12 63
125 7 31 12 62
127 10 31 13 62
121 9 31 15 61
133 10 29 15 60
132 10 32 16 60
131 10 45 15 59
135 10 56 15 58
128 16 56 17 57
130 15 58 17 57
131 16 56 17 56
128 16 55 17 55
134 14 59 18 54
131 16 56 17 54
118 15 52 17 53
124 18 60 19 52
124 18 64 20 51
124 18 54 18 50
122 17 54 18 50
126 17 54 18 49
128 14 48 16 48
119 12 45 13 47
121 12 47 13 47
120 11 48 12 46
124 11 51 13 45
121 13 61 14 44
111 22 55 16 43
129 29 53 22 43
130 36 57 34 42
113 38 70 36 41
125 36 76 38 40
125 35 77 37 39
129 40 75 41 39
129 48 75 49 38
124 59 83 62 37
143 63 83 66 36
146 63 89 69 36
129 59 89 66 35
130 51 83 56 34
133 40 59 46 34
116 30 24 30 33
114 32 27 31 32
110 33 28 32 32
119 32 29 33 31
122 23 27 23 30
119 20 25 19 30
120 13 12 11 29
118 13 12 11 29
122 13 11 11 28
119 13 10 12 27
121 13 8 13 27
124 10 7 12 26
125 12 9 13 26
128 10 8 9 25
126 14 9 9 24
121 13 8 9 24
124 13 8 8 23
121 13 9 10 23
124 13 9 10 22
123 13 9 9 22
123 13 8 7 21
123 17 10 10 21
114 18 19 21 20
121 21 19 21 20
122 21 19 21 19
116 20 20 26 19
119 20 21 27 18
118 21 27 34 18
120 22 28 34 17
122 20 29 33 17
119 20 30 36 16
129 23 35 39 16
129 22 31 35 15
120 18 33 38 15
123 18 34 38 15
122 19 35 35 14
128 20 34 34 14
126 16 28 27 13
121 15 28 27 13
124 15 27 28 13
121 15 28 20 13
119 13 23 18 12
121 12 21 18 12
120 11 14 12 12
125 10 17 12 12
122 7 18 11 11
122 7 18 13 11
125 6 18 14 11
120 6 21 15 11
126 9 25 19 10
125 14 23 19 10
121 14 26 21 10
126 15 27 22 10
123 14 27 21 9
126 15 25 22 9
125 15 25 23 9
122 15 25 22 9
127 15 24 21 8
124 16 22 21 8
124 15 17 16 8
128 12 16 17 7
126 12 11 14 7
129 9 9 13 7
126 8 9 10 7
120 11 8 10 6
124 11 6 11 6
119 11 13 15 6
119 11 20 15 6
118 13 20 22 5
114 12 24 29 5
116 12 31 29 5
109 13 32 34 5
111 13 32 33 5
112 13 32 34 4
110 12 33 33 4
115 12 33 33 4
112 12 31 30 4
118 12 28 31 3
121 10 27 18 3
118 9 25 15 3
122 9 13 15 3
121 8 12 8 2
120 9 8 10 2
125 7 8 10 2
124 12 12 20 2
134 15 16 22 2
134 15 16 22 1
130 14 16 23 1
132 16 26 23 1
129 15 26 23 1
135 15 27 30 1
135 16 27 32 1
130 16 32 32 1
136 16 32 33 1
132 15 33 26 1
126 12 32 25 0
129 12 32 25 0
126 11 32 24 0
130 11 26 22 0
129 11 26 22 0
126 11 25 19 0
130 11 25 13 0
124 14 20 17 0
121 15 20 17 0
122 14 19 17 0
120 19 15 17 0
123 18 16 17 0
120 18 17 20 0
122 19 16 19 0
124 18 16 20 0
121 19 16 20 0
130 19 16 23 0
130 15 14 21 0
134 15 12 21 0
139 15 14 20 0
131 11 13 20 0
136 11 13 19 0
135 12 11 11 0
134 12 11 9 0
137 12 9 9 0
130 9 8 9 0
132 9 7 7 0
133 9 8 8 0
127 9 8 9 0
128 8 8 8 0
127 11 13 9 0
128 10 13 9 0
128 13 14 10 0
125 13 15 10 0
130 15 14 10 0
128 15 14 10 0
124 15 14 10 0
127 14 13 9 0
124 14 13 9 0
128 14 13 9 0
126 14 9 9 0
126 15 11 11 0
133 13 10 10 0
125 13 9 10 0
130 11 9 10 0
131 11 7 10 1
126 11 8 8 1
128 13 8 7 1
125 12 12 6 1
126 13 17 8 2
126 19 18 12 2
115 19 19 15 2
122 19 32 18 3
121 19 52 20 3
115 17 62 19 3
117 16 62 19 4
115 15 63 19 4
119 16 63 20 4
118 15 61 19 5
114 16 57 19 5
119 10 53 19 5
118 8 51 17 6
116 5 54 15 6
118 6 52 10 6
114 6 48 12 7
119 7 49 12 7
118 13 52 12 8
116 12 59 12 8
120 12 65 19 8
117 11 52 18 9
123 12 39 16 9
121 12 57 21 9
118 12 96 40 10
121 10 103 40 10
118 10 102 39 10
120 10 101 40 11
118 4 98 40 11
118 5 90 39 12
122 6 77 33 12
118 5 74 32 12
118 6 90 39 13
119 7 97 41 13
118 7 69 26 14
118 9 59 31 14
115 16 54 36 15
119 17 55 36 15
124 18 55 36 16
122 20 53 37 16
121 22 50 38 17
120 23 49 39 17
118 23 56 38 18
122 23 44 35 18
119 23 51 37 19
124 22 76 34 19
124 16 81 28 20
115 13 111 32 20
121 13 122 32 21
115 12 122 32 21
119 9 123 31 22
121 9 123 29 22
121 11 123 26 23
121 11 124 26 23
117 10 122 31 24
115 12 99 27 24
121 15 102 27 25
123 17 83 24 26
123 17 55 24 26
122 17 73 23 27
120 17 85 22 28
125 18 83 23 28
118 16 81 24 29
122 15 82 23 29
123 15 80 14 30
123 14 81 15 31
124 12 80 16 31
117 9 80 17 32
116 9 93 18 32
119 10 79 24 33
118 12 93 33 34
117 11 126 34 34
114 10 127 33 35
117 9 134 35 35
119 8 140 36 36
115 10 140 35 37
113 15 144 35 37
112 17 141 34 38
115 18 127 33 38
122 17 124 32 39
120 18 125 25 39
123 18 106 21 40
124 19 110 29 41
122 19 113 30 41
126 19 97 27 42
121 19 101 29 42
130 16 102 28 43
131 13 99 27 44
122 8 94 26 44
126 7 94 26 45
121 8 88 26 46
122 11 89 31 46
125 11 93 25 47
121 11 76 22 47
124 11 131 31 48
124 11 134 30 49
120 10 136 30 49
124 10 139 32 50
121 9 142 33 50
121 10 142 33 51
122 11 143 34 52
114 13 136 31 52
116 15 120 31 53
113 15 132 32 53
121 13 107 25 54
121 12 98 27 55
115 12 115 30 55
120 12 125 30 56
119 12 120 30 56
115 13 130 31 57
120 12 134 31 58
119 9 137 30 58
121 6 142 32 59
122 5 135 32 59
114 7 120 32 60
119 9 119 33 61
115 10 111 33 61
121 13 96 33 62
122 13 94 29 62
122 14 82 28 63
122 14 84 41 64
119 15 84 41 64
120 16 100 41 65
124 15 107 40 65
118 15 111 40 66
122 15 111 37 67
121 14 114 36 67
116 10 126 37 68
120 8 123 38 68
115 7 129 38 69
116 9 123 27 70
117 11 129 31 70
119 15 107 28 71
119 15 100 22 71
114 16 109 25 72
119 15 111 25 73
123 14 104 25 73
117 13 97 41 74
122 15 99 41 74
120 18 131 45 75
125 21 130 44 76
126 22 139 47 76
115 18 133 45 77
124 16 153 48 77
124 16 148 49 78
118 12 175 53 79
123 8 179 53 79
121 8 183 56 80
121 13 184 59 80
123 13 164 55 81
114 15 162 55 81
124 14 151 53 82
124 16 151 56 83
117 15 131 54 83
118 14 128 55 84
113 15 94 49 84
117 15 85 42 85
114 16 58 34 85
114 16 44 31 86
115 16 43 29 86
117 16 50 29 87
116 16 72 27 88
115 13 74 21 88
117 13 91 26 89
123 13 98 26 89
118 12 102 34 90
118 11 103 34 90
119 12 107 35 91
116 10 110 34 91
120 7 110 34 92
117 7 120 37 92
116 9 113 39 93
118 13 122 41 93
110 17 134 51 94
112 17 162 62 94
112 17 158 60 95
116 22 171 73 95
119 23 179 73 96
113 23 185 72 97
118 23 187 73 97
119 23 176 71 98
119 22 150 67 98
124 20 154 67 99
125 18 150 62 99
132 18 118 44 100
132 18 124 48 100
124 13 95 25 101
131 12 119 42 101
130 11 105 43 102
131 11 132 45 102
134 10 131 44 103
133 13 148 47 103
135 14 147 53 104
131 14 179 66 104
130 14 180 66 105
134 15 209 74 105
128 15 215 74 106
127 12 200 64 106
127 11 218 65 107
120 12 212 72 107
122 13 215 73 108
115 10 210 80 108
121 9 211 79 109
122 9 187 70 109
113 9 185 71 110
126 12 165 63 110
124 13 187 68 111
126 13 184 70 111
128 13 167 66 111
123 13 188 63 112
133 16 184 68 112
131 16 192 51 113
131 17 194 46 113
139 18 191 48 113
136 18 192 48 114
130 15 192 48 114
130 17 194 50 115
125 17 237 49 115
130 19 250 56 115
129 20 252 58 116
121 19 250 54 116
123 19 249 55 117
121 17 246 55 117
121 19 257 57 117
119 19 258 57 118
124 24 338 75 118
126 22 325 70 118
122 23 314 83 119
126 22 316 81 119
126 22 304 79 119
125 24 343 90 120
131 24 345 91 120
121 26 352 100 120
125 25 353 102 120
125 25 352 102 121
115 21 313 102 121
127 21 321 106 121
125 21 335 97 122
123 21 345 99 122
126 21 344 99 122
122 21 322 97 123
126 21 314 98 123
125 19 312 88 123
123 19 302 83 123
126 21 325 89 123
125 21 284 77 124
125 22 279 73 124
124 22 249 67 124
122 22 226 65 124
126 23 237 67 125
123 25 248 68 125
121 26 245 65 125
122 26 248 64 125
120 25 249 67 125
130 28 216 62 126
125 29 219 58 126
125 29 214 76 126
128 29 213 77 126
122 29 203 74 126
120 30 210 78 126
121 27 171 70 126
119 27 177 69 127
123 27 167 70 127
114 28 182 76 127
118 26 190 72 127
119 27 182 75 127
116 25 178 64 127
119 20 155 60 127
119 17 168 60 127
125 16 156 58 127
127 18 160 58 127
124 20 159 56 128
133 20 150 56 128
131 20 151 66 128
127 17 155 65 128
129 12 162 61 128
123 12 162 58 128
128 12 169 58 128
128 9 148 58 128
128 7 134 53 128
131 8 135 52 128
128 12 132 56 128
130 11 128 55 128
131 11 121 34 128
125 12 97 36 128
130 13 81 39 128
126 14 100 36 128
126 14 90 40 128
129 14 90 40 128
123 12 85 38 128
129 12 84 38 128
127 13 83 36 128
123 13 80 37 128
126 12 80 37 128
122 12 77 33 128
127 11 74 31 128
126 10 66 29 128
125 9 73 20 128
131 9 75 18 128
127 9 83 18 128
127 9 94 18 128
128 6 92 17 128
125 8 91 17 128
131 8 90 14 128
128 7 90 13 128
129 7 88 14 128
131 7 81 16 128
125 6 54 14 128
126 8 63 16 127
124 8 58 17 127
122 8 47 18 127
125 8 48 18 127
120 8 44 18 127
121 7 41 16 127
120 8 42 16 127
117 8 44 16 126
122 9 40 16 126
118 9 48 17 126
114 8 48 16 126
114 10 53 21 126
113 9 50 22 126
124 11 50 22 125
121 11 51 22 125
125 10 52 24 125
128 10 55 24 125
123 10 53 25 124
128 9 54 25 124
126 9 41 22 124
128 9 43 23 124
134 8 38 18 124
129 9 40 17 123
124 5 39 15 123
123 5 37 15 123
119 5 39 13 123
124 5 28 12 122
120 5 31 12 122
117 6 23 10 122
119 6 23 9 121
120 7 23 12 121
124 8 23 13 121
121 7 24 16 120
123 8 25 17 120
128 8 36 16 119
125 8 34 19 119
128 8 34 23 119
127 8 39 25 118
130 8 39 25 118
132 8 40 25 117
123 8 46 24 117
122 8 46 23 116
124 8 47 22 116
126 10 46 20 116
129 8 41 21 115
125 7 33 20 115
124 7 29 17 114
127 9 28 15 114
122 10 30 16 113
125 14 30 18 113
124 16 32 17 112
129 16 41 17 112
130 15 42 17 111
121 12 43 17 111
123 10 42 17 110
123 10 42 16 109
124 10 50 15 109
128 10 51 15 108
124 11 46 13 108
128 9 51 14 107
129 11 65 26 107
127 12 63 27 106
133 13 62 27 105
129 12 63 26 105
132 12 62 26 104
135 11 75 33 104
127 8 69 31 103
132 11 74 36 103
131 15 86 43 102
133 19 93 49 101
135 19 85 43 101
126 18 85 43 100
130 16 87 43 100
131 14 86 43 99
127 12 87 43 99
130 11 72 31 98
128 10 68 31 97
126 10 67 31 97
128 10 54 27 96
120 7 39 16 96
132 10 38 18 95
130 12 33 18 95
127 12 32 18 94
131 12 33 18 94
129 12 31 20 93
130 12 24 17 92
128 12 31 26 92
127 12 30 27 91
138 14 29 30 91
136 14 33 31 90
136 12 32 30 89
135 9 30 29 89
134 9 32 29 88
139 10 37 31 87
134 13 38 28 87
134 14 44 28 86
138 14 57 30 85
136 14 59 30 84
134 13 59 28 84
131 15 57 28 83
129 16 58 27 82
133 16 62 27 81
129 17 60 27 81
129 17 51 21 80
126 13 46 18 79
129 9 46 18 79
128 8 35 12 78
122 9 35 11 77
125 8 35 9 77
125 9 35 9 76
120 9 39 11 75
122 10 25 9 74
119 10 22 11 74
125 11 44 18 73
127 10 48 18 72
121 13 51 23 71
131 15 51 24 70
131 17 61 25 70
125 16 70 24 69
129 12 69 24 68
124 13 66 24 68
132 15 66 24 67
130 15 66 23 66
125 15 63 17 66
130 16 62 15 65
129 18 58 15 64
123 17 57 15 64
126 17 47 23 63
126 16 27 23 62
132 17 24 24 62
129 18 21 24 61
127 19 23 24 60
130 19 24 26 60
125 18 22 24 59
126 19 22 25 58
124 18 22 24 58
130 18 36 26 57
128 15 42 21 56
119 11 52 21 55
126 12 81 21 55
126 13 92 22 54
118 12 92 21 53
122 12 92 21 53
119 13 91 23 52
128 19 90 24 51
128 25 90 25 51
120 25 81 22 50
126 23 73 13 50
124 25 77 21 49
123 26 57 25 49
125 26 29 25 48
124 27 28 26 48
129 28 26 26 47
128 27 20 23 47
118 24 15 19 46
122 14 15 12 46
119 9 17 10 45
124 13 20 13 45
124 14 20 16 44
115 20 20 18 44
124 21 22 21 44
122 20 17 20 43
118 20 16 19 42
120 19 15 19 42
120 15 14 14 41
126 14 12 12 41
122 10 10 9 40
122 11 9 9 40
126 10 9 9 39
121 11 10 12 38
119 13 14 14 38
118 15 26 20 37
123 16 32 22 36
126 15 32 23 36
122 16 41 26 35
120 17 47 27 34
121 17 48 28 33
117 17 48 28 33
122 18 51 30 32
120 15 51 28 31
126 15 52 28 31
127 14 48 25 30
114 13 44 25 29
119 14 44 24 29
117 12 36 18 28
121 13 21 14 27
122 12 13 14 27
117 14 14 15 26
118 13 15 15 26
117 12 14 13 25
110 12 14 13 24
115 12 14 13 24
114 12 13 12 23
114 11 13 12 23
117 13 12 12 22
112 13 9 10 22
118 13 9 12 21
114 12 10 12 21
118 13 15 13 20
118 17 19 14 20
113 17 19 15 20
117 17 19 14 19
116 18 20 14 19
117 20 26 19 18
118 19 27 20 18
115 19 27 21 17
116 18 28 21 17
115 18 28 23 17
112 17 25 22 16
118 11 23 23 16
116 12 23 23 16
121 13 24 24 16
121 13 24 24 15
115 9 19 19 15
121 8 19 18 15
120 7 19 18 15
125 13 16 16 14
128 13 16 15 14
123 17 20 18 14
129 18 17 17 14
128 18 16 17 14
124 17 15 21 14
130 17 32 33 13
127 17 38 36 13
129 15 37 37 13
128 16 43 40 13
122 17 43 41 13
126 17 43 40 13
125 16 44 41 12
126 15 44 40 12
126 16 44 40 12
119 18 45 40 12
124 17 33 30 12
122 17 30 29 11
118 16 30 26 11
121 17 22 22 11
116 16 21 21 10
123 22 24 26 10
121 23 21 25 10
118 23 21 25 10
122 21 23 26 9
122 18 22 25 9
120 16 20 22 9
120 15 15 18 9
119 14 13 18 8
123 14 12 19 8
120 15 13 19 8
117 10 16 16 8
120 9 18 19 7
117 10 19 19 7
120 10 22 21 7
117 8 19 12 7
120 7 19 11 6
121 12 15 11 6
112 14 19 18 6
121 11 15 17 6
121 13 21 20 6
118 13 22 21 5
127 17 26 25 5
123 17 26 24 5
125 17 26 24 5
126 19 30 25 5
123 19 32 31 4
129 18 32 31 4
128 18 29 28 4
123 18 29 29 4
126 17 27 26 4
121 17 26 26 4
125 13 22 23 3
123 13 22 23 3
125 13 22 23 3
128 13 20 26 3
121 12 17 17 3
125 12 17 17 3
125 15 19 19 2
122 15 20 19 2
127 15 18 18 2
124 15 18 18 2
120 12 13 13 2
121 12 21 25 2
116 12 22 35 2
121 12 25 34 2
120 12 25 34 1
122 12 27 35 1
125 9 27 33 1
122 8 26 32 1
123 10 27 31 1
121 13 28 33 1
116 14 28 32 1
123 16 23 30 0
120 16 21 20 0
122 16 18 19 0
122 15 18 16 0
119 16 16 16 0
126 19 16 16 0
122 19 14 14 0
129 16 13 16 0
130 17 14 17 0
127 18 19 22 0
129 17 18 26 0
127 23 23 28 0
130 25 24 45 0
135 25 23 47 0
128 23 24 47 0
132 23 41 55 0
132 23 41 55 0
126 22 40 51 0
132 17 41 52 0
130 14 37 47 0
133 14 36 39 0
134 10 35 40 0
127 7 35 32 0
131 7 34 31 0
127 7 32 30 0
126 6 12 11 0
129 6 12 11 0
122 9 10 11 0
125 9 8 10 0
123 10 7 11 0
121 10 8 10 0
124 10 8 9 0
118 13 9 10 0
121 13 10 14 0
120 13 10 14 0
120 15 10 14 0
125 15 13 17 0
123 14 13 17 0
123 14 12 17 0
124 12 11 16 0
122 12 11 16 0
124 13 10 16 0
125 15 11 17 0
125 15 16 15 0
127 14 22 15 0
121 12 18 15 0
126 12 28 13 0
125 12 44 12 0
129 13 52 12 0
132 13 52 12 0
126 13 53 12 0
131 12 53 12 0
130 9 53 12 1
127 9 49 10 1
133 9 43 8 1
129 10 48 8 1
128 6 56 8 1
129 6 48 10 1
124 7 40 11 1
127 7 39 11 2
123 7 42 15 2
124 8 41 15 2
129 11 46 15 2
129 16 65 16 3
128 16 73 18 3
125 16 69 19 3
125 16 64 19 3
129 16 66 19 4
122 13 74 22 4
128 13 78 23 4
129 11 76 23 5
123 10 79 23 5
126 10 84 26 6
118 9 77 27 6
121 9 55 23 7
123 9 54 21 7
120 8 92 35 7
124 8 112 37 8
121 10 114 36 8
119 9 112 37 9
122 7 111 36 9
120 7 109 36 10
120 9 108 33 11
120 14 113 30 11
121 14 113 30 12
124 13 123 33 12
118 12 128 26 13
120 13 119 28 13
120 13 123 27 14
114 12 123 25 15
119 11 147 38 15
115 11 155 38 16
118 11 150 40 17
119 12 143 47 17
111 13 146 49 18
117 15 144 48 19
115 16 130 46 20
114 16 133 47 20
119 16 130 50 21
117 14 132 52 22
118 11 102 40 23
117 12 79 35 23
112 12 80 35 24
120 15 83 30 25
118 15 85 29 26
121 14 83 27 26
121 14 94 26 27
118 14 103 26 28
124 15 109 22 29
121 15 126 17 30
118 16 132 16 31
122 15 135 21 31
124 15 147 24 32
122 6 146 25 33
120 8 141 24 34
116 12 163 42 35
120 13 159 44 36
114 13 142 43 37
116 13 159 48 38
115 13 163 50 39
124 17 157 52 39
124 17 158 51 40
116 17 157 56 41
121 14 153 53 42
124 14 153 53 43
120 15 128 48 44
125 16 113 48 45
124 15 130 49 46
118 15 120 44 46
121 14 88 38 47
113 14 67 38 48
117 14 73 41 49
116 15 69 35 50
115 15 65 35 51
120 17 70 37 52
119 20 85 38 52
118 23 83 38 53
118 23 62 44 54
117 25 54 43 55
122 22 45 37 56
118 18 66 38 57
125 14 67 39 57
125 13 120 41 58
115 11 118 38 59
122 14 183 51 60
119 16 211 56 60
120 17 214 56 61
123 17 235 59 62
124 12 233 56 63
122 10 237 55 64
118 9 234 54 65
116 7 240 56 65
121 6 213 52 66
123 6 215 52 67
121 6 193 53 68
121 5 162 52 68
122 6 161 53 69
125 8 141 51 70
120 9 141 52 71
124 9 134 52 72
125 10 135 50 72
120 10 126 52 73
127 12 130 55 74
124 12 126 55 75
121 12 108 48 76
125 13 104 46 76
119 12 101 43 77
122 9 132 56 78
121 8 139 58 79
121 11 200 80 80
123 11 197 80 80
122 14 204 80 81
124 14 197 81 82
124 16 202 90 83
123 19 198 91 83
128 18 198 90 84
125 18 202 90 85
130 19 176 78 86
132 19 174 77 86
126 15 122 52 87
132 14 123 52 88
129 13 121 52 89
131 14 125 51 89
133 13 131 36 90
128 6 131 35 91
128 9 146 42 91
129 10 146 43 92
120 10 188 57 93
125 13 189 58 94
122 13 182 55 94
122 13 187 54 95
123 13 189 54 96
118 21 190 64 96
122 24 187 66 97
119 26 185 62 98
121 24 165 54 98
125 25 189 63 99
129 27 135 54 99
134 25 173 63 100
132 24 175 63 101
130 23 174 63 101
136 23 189 76 102
128 20 184 70 102
139 19 183 68 103
139 15 194 69 104
133 16 197 70 104
136 15 228 74 105
126 13 265 81 105
129 11 249 74 106
129 11 266 73 107
127 11 274 72 107
131 16 258 64 108
130 16 259 65 108
120 15 259 64 109
121 15 245 61 109
116 15 238 54 110
124 25 200 50 110
124 25 137 34 111
117 27 138 43 111
123 27 129 48 112
123 28 111 49 112
120 24 148 61 113
119 21 147 60 113
119 18 167 64 114
125 18 169 67 114
127 24 195 71 114
123 20 197 72 115
128 23 192 74 115
125 21 194 73 116
129 19 179 69 116
123 14 183 68 117
123 16 166 56 117
132 17 171 55 117
132 19 160 50 118
134 22 158 47 118
131 21 132 42 118
136 24 126 40 119
140 20 143 33 119
135 21 136 41 119
138 24 144 50 120
140 24 144 51 120
134 22 140 69 120
135 23 172 78 121
132 25 179 84 121
146 28 176 85 121
146 27 185 83 122
135 22 180 80 122
142 22 180 80 122
142 22 180 78 122
133 21 178 76 123
137 23 194 77 123
136 20 181 58 123
140 21 160 51 123
134 21 169 47 124
125 18 176 48 124
129 19 191 53 124
126 19 202 54 124
114 20 197 59 124
116 20 202 64 125
118 19 204 65 125
122 18 180 64 125
119 19 182 64 125
117 19 182 64 125
123 20 157 63 126
115 20 169 62 126
124 20 150 64 126
123 19 143 64 126
130 17 137 57 126
135 17 132 55 126
130 16 153 54 126
126 19 156 54 127
126 17 152 52 127
116 17 157 52 127
114 14 165 47 127
114 16 166 48 127
112 16 154 40 127
112 23 247 73 127
111 23 245 73 128
113 24 286 94 128
110 28 344 101 128
119 29 347 107 128
124 36 395 119 128
125 37 395 121 128
129 37 390 121 128
125 35 388 121 128
125 35 390 121 128
128 31 336 105 128
118 31 337 104 128
122 31 310 91 129
123 28 229 84 129
122 22 214 75 129
125 14 144 56 129
120 13 143 48 129
122 17 186 61 129
124 17 188 58 129
120 17 184 63 129
125 18 203 68 129
125 19 205 69 129
124 18 222 68 129
126 17 221 66 129
118 16 217 64 129
121 15 213 67 129
122 20 231 77 129
122 15 196 67 129
126 15 175 67 129
121 15 179 59 129
122 16 170 54 129
122 17 189 62 129
121 17 167 61 129
128 18 163 60 129
123 21 171 65 129
124 21 171 64 129
125 18 141 52 129
119 18 145 52 129
124 19 176 58 129
122 20 177 57 129
121 22 213 68 129
122 21 207 58 129
115 21 208 55 129
120 20 212 54 129
120 18 207 51 129
120 17 207 50 129
125 18 207 50 129
122 19 205 52 129
124 16 176 43 129
124 13 178 44 129
124 11 121 28 129
131 10 92 26 129
129 10 99 26 129
125 10 105 39 129
127 9 103 38 129
118 9 103 38 129
120 9 109 46 129
118 6 108 43 129
119 10 97 44 129
124 10 96 43 129
121 10 96 43 129
123 10 84 41 128
123 10 78 40 128
121 10 50 29 128
126 10 48 29 128
124 10 46 28 128
130 10 38 14 128
131 10 39 15 128
124 6 39 10 128
128 6 56 13 128
124 6 54 13 127
128 6 58 13 127
130 6 62 13 127
123 6 63 13 127
125 7 67 13 127
124 8 69 14 126
123 8 76 19 126
128 8 76 18 126
126 9 80 20 126
126 11 63 21 126
126 13 62 21 125
125 13 61 21 125
128 13 60 22 125
125 13 58 23 124
131 11 58 26 124
131 11 63 26 124
124 9 55 27 123
125 10 54 29 123
122 11 48 32 123
125 11 54 31 122
128 11 55 31 122
127 12 71 31 122
128 12 76 31 121
127 11 78 31 121
128 11 76 27 120
135 9 73 22 120
127 8 71 17 120
131 8 70 16 119
134 8 70 12 119
130 7 62 11 118
133 7 66 14 118
125 4 63 18 117
127 4 57 19 117
128 6 61 29 116
117 6 61 29 116
126 8 57 28 115
126 9 65 31 115
124 9 66 31 114
128 9 73 34 113
125 9 75 34 113
126 9 67 32 112
124 6 53 28 112
124 6 54 28 111
130 6 49 21 111
129 10 68 26 110
127 8 68 26 110
127 8 62 23 109
127 13 62 23 108
129 13 56 19 108
123 13 53 20 107
130 12 54 23 107
134 11 64 24 106
131 9 69 23 106
136 8 86 26 105
134 9 86 25 104
131 9 87 25 104
136 9 88 25 103
131 8 89 25 102
133 7 89 26 102
133 7 91 29 101
125 10 92 29 101
129 11 81 26 100
125 12 69 26 99
125 12 60 25 99
126 12 51 23 98
122 12 46 23 98
125 13 42 21 97
122 10 35 19 96
128 10 34 14 96
134 13 41 18 95
131 13 39 16 95
131 12 37 17 94
130 9 49 21 93
128 9 50 22 93
133 9 51 22 92
129 8 50 23 91
131 8 49 23 91
131 8 53 23 90
122 9 56 23 89
125 9 52 19 89
122 9 46 20 88
130 9 46 19 87
131 9 42 14 87
126 9 41 13 86
129 8 46 13 85
127 7 48 13 85
130 7 48 11 84
133 7 52 12 83
133 7 58 17 83
135 8 56 21 82
133 7 57 18 81
126 7 56 21 81
134 7 58 23 80
130 6 58 24 79
132 5 53 25 79
131 6 45 24 78
128 7 41 26 77
132 7 39 26 77
127 7 34 25 76
123 6 35 23 75
125 6 33 23 75
123 9 41 20 74
126 9 58 19 73
123 9 59 19 73
123 9 79 20 72
126 9 101 25 71
118 7 106 24 71
125 8 106 24 70
124 12 104 24 70
120 13 102 23 69
126 13 102 23 68
121 14 97 25 68
124 19 82 28 67
124 22 93 32 67
118 25 88 33 66
128 28 59 29 66
126 30 41 24 65
122 29 42 24 64
129 24 55 23 64
128 16 53 14 63
131 10 74 17 63
129 11 78 18 62
123 12 82 19 62
126 13 79 20 61
122 16 95 32 60
124 16 103 34 60
125 19 106 40 59
130 27 104 39 59
123 30 86 36 58
118 32 85 37 57
124 30 81 38 57
124 31 81 37 56
120 27 65 22 56
126 23 56 13 55
126 21 44 17 55
131 27 38 26 54
131 37 41 35 54
118 46 65 48 53
147 47 78 51 53
152 48 75 49 52
127 47 80 45 51
134 40 92 38 51
135 31 96 31 50
142 26 96 28 50
140 25 96 28 49
133 27 96 30 49
146 28 93 31 48
147 25 77 24 47
134 25 52 20 47
129 21 48 15 46
133 18 50 13 46
121 11 33 10 45
132 7 19 9 44
205 7 16 8 44
218 6 17 9 43
214 10 19 14 43
227 13 18 15 42
228 20 17 18 41
204 21 17 21 41
190 19 21 18 40
154 19 43 17 40
171 27 45 20 39
184 32 44 26 38
148 35 43 30 38
177 36 40 31 37
189 36 40 31 36
161 34 44 32 36
151 26 44 28 35
157 19 45 23 35
146 27 45 32 34
124 33 31 35 33
125 31 28 36 33
133 28 27 33 32
143 25 27 31 31
131 23 27 30 31
125 21 27 28 30
137 20 23 22 30
129 19 21 21 29
110 20 21 22 29
123 21 23 20 28
122 20 21 19 27
117 20 21 19 27
117 22 22 20 26
114 22 21 19 26
124 22 21 19 25
125 22 20 20 25
118 23 20 22 24
130 29 27 28 23
130 27 26 27 23
119 23 21 22 22
121 19 19 20 22
117 17 18 21 21
129 17 18 22 21
129 21 23 25 20
112 24 25 27 20
119 24 25 26 19
119 23 24 24 19
113 19 18 18 18
113 21 21 21 17
110 21 22 21 17
114 21 22 21 17
112 22 22 21 16
111 22 23 23 16
115 18 20 20 15
117 11 16 16 15
118 11 17 18 14
115 13 17 19 14
113 11 17 18 14
119 7 17 18 13
114 8 15 17 13
121 8 15 18 12
120 7 15 18 12
116 8 14 16 12
122 10 14 17 11
119 13 14 18 11
118 15 15 19 11
121 18 17 20 10
125 22 20 23 10
130 22 17 21 10
127 20 17 19 10
127 19 15 17 10
128 18 15 13 9
122 18 15 13 9
126 18 14 15 9
125 19 15 15 9
128 19 17 17 9
129 19 17 18 9
119 13 18 17 9
120 12 17 16 9
120 13 16 17 8
114 15 17 17 8
121 15 24 31 8
121 12 24 31 8
116 11 23 30 8
117 9 23 29 8
113 9 23 29 8
119 9 23 29 7
116 10 16 27 7
114 10 16 27 7
117 10 16 24 7
115 10 16 26 6
120 9 8 17 6
119 8 7 16 6
124 11 9 10 6
131 11 7 11 5
127 10 8 10 5
125 15 12 17 5
126 15 14 26 5
126 15 15 26 4
132 15 16 25 4
128 16 16 23 4
125 17 16 23 4
129 18 17 25 3
124 18 15 25 3
129 20 17 25 3
127 20 17 26 3
132 18 23 30 2
133 18 22 22 2
124 19 27 21 2
131 19 28 21 2
131 19 31 22 2
130 19 31 22 1
131 20 33 25 1
126 21 33 25 1
128 19 32 23 1
130 19 32 23 1
121 24 31 21 1
124 24 31 25 0
123 21 27 24 0
117 20 26 24 0
118 21 20 23 0
113 20 22 24 0
117 20 21 24 0
115 20 24 25 0
111 19 24 26 0
115 19 24 31 0
113 12 23 28 0
118 10 23 29 0
118 12 22 37 0
116 13 25 38 0
122 11 24 37 0
120 12 22 35 0
125 13 22 36 0
126 13 18 34 0
121 13 18 34 0
117 18 26 29 0
115 18 26 29 0
115 18 25 29 0
120 19 26 26 0
112 20 23 25 0
114 20 23 25 0
113 26 27 30 0
117 31 28 34 0
117 31 28 34 0
111 32 32 33 0
120 28 26 26 0
120 25 22 25 0
116 25 23 28 0
119 25 23 26 0
119 22 23 25 0
123 23 24 26 0
124 22 24 23 0
112 16 24 14 0
120 15 23 13 0
118 13 19 13 0
120 13 12 18 0
122 12 14 22 0
120 12 19 22 0
125 12 19 22 0
123 9 20 24 0
122 9 19 24 0
130 10 28 27 0
127 9 29 32 0
130 8 29 32 0
132 12 27 31 0
128 12 27 31 0
136 13 24 27 0
132 13 23 27 0
134 13 23 27 0
137 13 24 26 0
132 13 23 24 0
132 13 12 18 0
130 13 13 15 0
129 13 11 12 0
130 8 7 8 0
124 9 6 10 0
123 11 12 13 0
122 13 14 14 0
115 12 16 15 0
120 12 16 15 0
116 12 15 15 0
116 12 15 15 0
117 12 15 15 0
114 13 15 14 0
119 13 15 15 0
118 12 15 13 0
120 9 12 10 0
123 7 6 8 0
121 8 5 9 0
122 9 12 11 0
120 9 17 8 0
123 10 22 8 0
127 9 21 7 0
122 7 21 8 0
127 7 22 8 0
127 7 21 8 0
125 7 21 6 0
128 8 22 6 0
125 9 23 6 0
130 9 28 7 0
131 10 24 8 0
124 11 19 10 0
128 11 30 11 0
125 11 43 11 0
122 9 42 12 0
125 9 42 12 0
122 9 42 12 0
126 9 42 11 0
123 5 42 12 0
123 5 53 14 1
127 4 66 14 1
124 4 67 14 1
126 4 64 18 1
126 4 52 17 1
121 6 59 18 2
126 5 66 18 2
122 5 65 17 2
126 6 84 19 3
127 6 93 19 3
121 4 91 20 4
129 7 89 24 4
127 7 89 24 4
125 7 104 24 5
129 7 118 27 5
125 8 107 27 6
130 7 96 27 6
128 8 100 27 7
123 7 101 26 7
128 7 103 27 8
125 8 106 26 8
122 7 103 23 9
123 8 110 22 10
124 7 103 21 10
129 8 62 16 11
126 10 83 16 11
123 11 145 29 12
126 12 161 30 12
124 13 158 28 13
127 13 159 29 14
125 14 161 31 14
122 18 161 30 15
129 31 156 36 15
125 34 143 44 16
121 35 137 46 16
119 36 137 47 17
114 38 113 44 18
121 42 102 49 18
121 49 122 59 19
113 53 144 64 20
114 55 149 68 20
122 55 148 68 21
115 43 148 64 22
106 34 143 49 23
107 25 133 37 24
113 28 117 40 24
116 32 99 40 25
116 33 95 41 26
110 29 96 36 27
117 26 76 31 28
118 22 66 17 28
109 17 65 23 29
108 17 77 28 30
108 17 78 26 31
105 16 74 26 32
110 17 94 26 32
114 28 108 34 33
112 31 107 34 34
113 34 110 40 35
117 36 110 45 36
115 38 111 53 36
106 34 115 48 37
112 30 106 45 38
116 28 97 49 39
117 29 99 49 40
124 29 89 51 41
118 27 73 51 42
114 27 78 59 42
117 26 79 57 43
110 24 109 62 44
123 18 110 54 45
124 17 134 55 46
118 17 133 53 47
127 18 146 49 48
127 20 148 49 49
121 18 148 47 49
122 18 156 48 50
125 20 153 45 51
125 21 153 45 52
119 16 133 35 53
125 16 146 44 54
129 15 133 46 54
124 14 137 43 55
129 14 121 44 56
128 14 109 44 57
130 17 110 43 58
130 26 113 48 59
124 30 115 49 59
141 35 115 49 60
141 35 114 46 61
129 31 132 32 62
133 32 127 29 62
133 30 135 30 63
121 27 134 30 64
125 26 140 33 65
125 26 141 35 66
134 26 146 38 66
134 26 158 39 67
126 23 150 40 68
132 22 151 42 69
130 22 129 41 69
130 21 126 39 70
130 23 119 40 71
137 27 120 42 72
134 25 120 43 72
122 20 109 36 73
130 17 122 37 74
130 15 132 48 75
121 13 146 55 75
126 13 147 55 76
124 12 177 63 77
117 20 170 61 77
128 26 169 62 78
127 27 170 63 79
126 27 181 62 79
124 29 174 59 80
111 39 201 76 81
119 45 212 75 81
111 45 205 69 82
120 52 227 81 83
120 52 206 78 83
123 52 211 82 84
114 49 211 80 85
105 47 211 80 85
120 47 193 76 86
120 50 194 78 87
119 50 184 69 87
135 48 171 67 88
139 51 177 73 89
122 39 136 44 89
126 30 144 54 90
132 31 136 57 90
135 29 142 56 91
130 22 145 53 91
131 22 140 55 92
139 24 132 59 93
141 27 129 61 93
136 31 108 58 94
136 34 108 56 94
147 33 107 55 95
141 28 126 48 95
127 21 136 40 96
132 19 145 44 97
134 18 146 47 97
126 13 152 47 98
134 11 201 56 98
134 18 189 54 99
139 23 208 67 99
138 27 214 69 100
126 26 219 69 100
131 25 215 68 101
131 22 213 66 101
125 18 200 64 102
130 16 194 62 102
125 14 227 74 103
119 10 183 67 103
121 13 179 67 104
119 16 158 59 104
124 16 174 59 104
121 18 160 59 105
121 17 179 56 105
121 17 169 56 106
120 21 184 54 106
122 23 187 48 107
121 31 186 51 107
138 43 236 64 108
137 43 236 58 108
123 39 241 59 108
131 36 225 55 109
131 34 249 66 109
127 31 238 69 110
133 25 241 71 110
130 28 214 71 110
136 28 197 68 111
136 28 196 68 111
124 27 217 72 111
138 31 218 74 112
137 34 210 73 112
135 34 211 73 112
137 21 173 67 113
140 20 176 58 113
139 19 192 63 114
138 21 199 67 114
137 19 188 65 114
139 14 173 59 115
130 15 129 54 115
133 15 165 62 115
133 14 177 66 116
134 13 174 66 116
139 13 166 64 116
134 10 154 59 117
133 13 147 57 117
133 12 166 55 117
127 13 171 55 117
127 13 172 58 118
126 15 208 59 118
121 16 259 67 118
123 16 243 57 118
115 17 249 61 119
123 17 256 64 119
120 16 262 64 119
123 15 269 66 120
129 15 258 66 120
124 15 250 68 120
130 15 257 66 120
131 14 245 74 120
135 11 144 43 121
137 13 146 54 121
132 13 155 59 121
129 15 156 59 121
131 15 154 60 122
128 18 146 59 122
127 18 134 57 122
127 18 124 56 122
130 18 117 58 122
131 19 101 46 123
121 20 147 62 123
127 20 148 58 123
127 20 150 57 123
129 18 155 57 123
132 18 155 56 124
125 16 154 57 124
128 18 169 69 124
128 17 169 68 124
127 17 154 63 124
125 22 176 68 125
119 21 129 50 125
119 19 117 52 125
123 25 166 68 125
120 27 185 72 125
132 30 186 73 125
131 30 233 68 125
131 31 234 65 126
135 31 243 68 126
127 31 242 80 126
134 27 226 76 126
133 30 231 76 126
128 30 229 78 126
132 27 209 69 126
124 27 183 63 127
121 22 167 62 127
120 25 124 67 127
117 24 107 66 127
124 25 90 62 127
124 29 118 55 127
125 32 127 58 127
129 29 117 40 127
130 26 116 40 127
131 26 135 43 128
129 20 126 34 128
129 20 147 43 128
134 20 143 40 128
129 21 151 41 128
134 22 153 48 128
132 19 129 42 128
133 12 106 35 128
134 10 104 35 128
130 6 107 33 128
133 7 109 33 128
133 7 110 33 128
130 10 89 29 128
134 10 100 29 128
130 9 86 29 128
131 11 110 26 128
134 11 109 26 128
131 11 120 33 128
139 10 120 33 128
137 9 120 33 128
138 10 109 35 128
142 10 111 35 128
134 10 114 37 128
139 11 102 37 127
139 10 103 34 127
134 7 76 32 127
138 7 78 33 127
133 7 62 27 127
133 5 67 27 127
134 6 67 27 127
128 7 71 23 127
133 6 75 23 127
132 6 72 17 127
129 5 79 18 127
132 5 73 17 127
127 5 72 12 127
127 6 70 13 127
125 5 69 12 127
122 6 65 14 126
125 5 76 19 126
121 7 72 30 126
121 8 56 30 126
122 8 69 35 126
120 9 75 35 126
122 10 77 35 126
118 10 84 35 126
121 8 76 34 126
124 10 83 36 125
119 9 82 33 125
123 8 65 26 125
119 8 71 23 125
120 8 71 24 125
122 8 66 17 124
115 7 58 17 124
120 8 54 18 124
119 8 33 16 124
121 14 41 26 124
123 12 34 24 123
119 12 35 25 123
124 12 33 25 123
125 11 25 23 123
125 12 25 24 122
131 13 27 26 122
128 13 28 26 122
134 14 32 27 122
137 14 31 27 121
130 8 23 20 121
136 6 24 20 121
134 7 42 21 120
131 10 43 24 120
135 9 46 25 120
128 9 56 24 119
133 9 57 22 119
133 9 57 23 119
129 9 54 20 118
133 9 54 19 118
128 10 58 22 118
134 10 59 21 117
135 9 47 17 117
132 5 48 13 116
140 6 48 13 116
138 6 40 20 115
135 4 30 21 115
136 6 47 34 114
130 6 52 34 114
134 8 54 37 113
132 8 54 36 113
130 9 54 39 112
134 9 66 42 112
131 10 68 42 111
126 11 68 41 111
127 11 64 36 110
129 11 59 32 110
134 12 56 26 109
128 11 55 26 109
133 11 55 24 108
134 10 49 22 108
127 5 48 11 107
134 4 35 7 107
131 4 33 8 106
132 5 35 12 106
134 8 34 16 105
129 8 38 16 105
133 8 50 20 104
132 8 50 20 104
129 9 50 21 103
135 11 61 27 102
131 10 66 28 102
131 9 66 28 101
131 8 71 31 101
129 7 69 31 100
132 7 68 30 100
126 9 71 32 99
129 9 62 28 98
129 10 59 27 98
122 11 58 27 97
127 11 52 26 97
125 11 52 26 96
124 10 52 26 96
127 7 39 16 95
123 6 30 9 94
129 7 27 8 94
128 12 27 15 93
125 12 59 35 93
133 13 70 41 92
131 15 70 41 91
130 13 76 41 91
129 11 71 40 90
130 14 85 42 89
134 13 92 42 89
130 10 90 40 88
135 9 89 38 88
138 9 91 39 87
136 8 86 33 87
142 8 82 28 86
140 8 83 28 85
139 9 75 24 85
143 9 78 25 84
135 8 59 19 84
140 8 28 8 83
139 9 22 6 83
134 7 28 6 82
137 7 33 7 82
132 7 35 8 81
131 8 42 8 80
132 6 74 22 80
128 6 98 29 79
135 9 102 28 78
133 10 101 29 78
132 10 106 31 77
135 11 108 32 77
128 13 102 32 76
133 13 97 33 75
131 14 94 33 75
128 14 97 34 74
134 15 87 28 74
132 16 57 17 73
129 15 24 11 73
127 9 19 11 72
128 10 16 12 72
128 10 31 11 71
123 10 28 10 70
127 9 43 14 70
128 9 42 14 69
125 13 61 26 68
127 17 134 49 68
123 17 168 58 67
129 17 171 58 66
130 18 171 56 66
120 16 171 55 65
129 14 164 52 65
129 12 161 51 64
125 10 149 43 63
131 7 141 37 63
128 8 142 37 62
127 8 111 26 62
127 7 53 10 61
122 9 30 10 61
129 10 37 11 60
125 12 37 11 60
125 12 49 11 59
127 13 57 12 59
126 14 64 12 58
126 12 71 11 57
122 9 76 11 57
124 9 75 10 56
129 14 74 15 56
127 18 61 16 55
128 19 40 15 55
126 18 38 15 54
126 18 43 14 54
129 16 50 13 53
119 13 45 11 52
123 10 37 13 52
122 10 26 13 51
121 10 27 14 51
124 10 28 13 50
120 8 29 12 50
118 6 38 14 49
120 7 38 14 48
116 8 39 14 48
125 8 34 15 47
124 9 42 15 47
122 9 71 18 46
128 6 71 20 45
123 6 70 19 45
123 6 71 19 44
120 5 72 19 44
121 5 71 18 43
123 6 76 19 43
119 6 74 19 42
118 9 75 19 41
120 9 73 19 41
118 8 37 8 40
119 8 22 8 40
116 9 24 8 39
117 10 30 7 39
121 9 32 8 38
118 9 33 8 38
124 9 30 11 37
122 10 33 12 37
121 7 42 14 36
123 7 43 14 36
117 7 39 14 36
124 8 36 14 35
123 7 36 14 35
124 6 37 14 34
124 6 40 12 34
120 6 32 10 33
121 6 30 10 33
121 6 31 9 33
119 9 28 8 32
127 11 25 7 32
125 11 24 7 31
121 11 19 8 31
124 11 10 9 31
120 11 10 9 30
121 13 8 10 30
119 13 10 11 29
124 14 13 13 29
127 15 13 14 29
120 11 12 12 28
117 11 12 12 28
118 11 12 13 27
125 14 13 16 27
127 15 13 15 27
123 15 13 15 26
128 12 14 14 26
129 12 14 13 25
119 9 13 9 25
121 11 16 10 25
119 12 17 10 24
123 13 17 11 24
127 14 22 14 23
119 15 24 15 23
119 18 28 20 22
118 21 32 22 22
115 21 32 22 22
121 21 31 23 21
118 23 30 24 21
119 23 28 25 20
120 22 26 24 20
115 21 26 23 20
118 21 25 26 19
111 19 27 27 19
118 18 29 29 18
118 14 22 27 18
107 18 22 27 18
110 19 24 29 17
108 19 24 29 17
113 20 24 29 17
115 20 24 29 16
115 20 24 28 16
115 17 21 19 16
114 18 20 19 15
114 18 17 16 15
120 17 16 14 15
121 10 16 12 14
124 10 12 9 14
126 16 17 16 14
131 25 26 25 13
134 25 26 25 13
127 23 25 23 13
130 23 24 23 13
132 23 23 23 12
123 21 21 23 12
129 21 20 22 12
127 20 18 22 12
130 23 19 24 12
131 22 18 24 11
118 12 12 18 11
122 11 12 18 11
121 11 12 18 11
120 13 14 20 11
124 13 14 21 11
122 12 17 18 10
120 12 17 18 10
120 12 16 19 10
114 10 21 18 10
116 10 21 19 10
116 11 25 22 10
116 11 25 23 10
119 12 26 23 9
115 11 26 21 9
119 11 26 21 9
116 10 22 20 9
119 9 22 20 9
123 6 19 15 8
120 7 17 15 8
123 12 20 19 8
121 12 15 14 8
122 12 16 16 7
121 15 13 13 7
116 14 11 12 7
116 14 15 17 7
118 16 17 19 7
117 18 20 21 6
120 19 22 23 6
116 19 22 23 6
123 19 25 23 6
124 19 28 24 6
117 18 26 24 5
125 9 25 22 5
125 9 24 24 5
124 10 23 22 5
127 10 23 22 5
121 9 22 21 5
127 13 18 18 4
127 14 17 18 4
119 12 16 17 4
125 10 13 13 4
121 10 12 13 4
120 10 10 12 4
122 10 10 10 3
118 10 8 13 3
122 10 15 14 3
118 10 14 15 3
116 8 16 22 3
118 9 20 22 3
115 9 21 24 2
118 9 21 25 2
118 8 21 25 2
120 8 21 25 2
122 10 22 26 2
117 10 24 24 2
122 10 19 24 2
123 12 18 23 1
119 11 13 15 1
128 10 12 15 1
124 11 11 14 1
124 10 7 9 1
124 11 12 9 1
120 12 13 11 1
125 12 14 15 1
124 14 15 19 0
121 13 26 32 0
125 14 32 32 0
121 14 35 36 0
118 13 35 44 0
118 15 35 50 0
120 15 35 50 0
125 15 35 50 0
119 12 35 49 0
120 11 35 49 0
121 11 35 48 0
118 12 26 39 0
117 16 20 40 0
114 18 15 33 0
119 17 15 27 0
119 17 17 17 0
114 14 17 14 0
120 14 13 13 0
118 14 15 13 0
122 15 16 16 0
125 14 14 14 0
121 14 14 14 0
128 13 12 13 0
128 12 12 13 0
125 14 19 20 0
130 10 19 19 0
124 9 19 19 0
127 9 18 18 0
128 9 22 34 0
121 8 25 39 0
124 9 26 39 0
121 11 29 39 0
122 11 29 39 0
125 11 30 39 0
120 7 27 38 0
125 8 26 38 0
123 8 27 38 0
120 8 27 37 0
124 7 22 22 0
120 8 19 14 0
120 9 18 13 0
120 7 14 13 0
118 6 14 13 0
122 8 9 12 0
119 8 9 5 0
117 9 17 7 0
118 9 20 7 0
113 9 25 8 0
117 10 27 8 0
114 10 36 8 0
118 6 46 8 0
122 8 48 8 0
115 8 48 8 0
115 7 48 9 0
114 7 48 9 0
118 9 44 9 0
121 9 47 9 0
118 9 50 8 0
120 9 52 7 0
121 9 48 9 0
117 9 38 9 0
123 10 33 9 0
121 9 32 9 0
123 9 38 8 1
124 9 54 8 1
118 7 54 10 1
121 8 61 12 1
118 8 78 13 1
120 8 81 22 2
123 7 98 22 2
119 7 112 23 2
121 6 111 24 2
120 6 111 23 3
120 6 111 26 3
124 6 108 26 3
121 6 108 28 4
125 5 101 26 4
126 6 83 26 4
122 6 87 22 5
125 5 74 23 5
121 6 49 21 5
123 5 54 20 6
125 7 66 24 6
121 7 66 22 7
123 7 72 24 7
121 7 65 21 8
119 7 82 24 8
122 7 82 24 9
119 7 93 25 9
122 7 122 27 10
122 7 130 27 10
118 7 126 29 11
123 6 115 28 11
119 5 115 29 12
122 3 115 28 12
123 6 115 26 13
117 10 79 18 13
118 10 73 14 14
117 10 92 17 15
111 10 86 17 15
114 9 81 19 16
111 12 86 22 17
118 16 95 24 17
117 22 93 22 18
109 27 79 20 19
118 30 105 21 20
121 27 133 21 20
120 25 141 20 21
117 22 142 21 22
118 20 149 21 22
126 25 149 31 23
123 32 152 37 24
117 37 143 37 25
119 36 138 39 25
121 33 155 40 26
123 30 139 39 27
117 27 135 43 28
120 26 138 42 28
124 26 135 41 29
122 27 118 39 30
119 27 116 37 31
115 24 112 33 31
121 16 131 40 32
123 10 143 45 33
118 10 131 45 34
118 11 133 47 35
117 15 126 46 36
121 22 115 50 36
122 24 115 51 37
117 24 115 51 38
121 23 113 52 39
123 23 118 52 40
114 22 104 43 40
123 20 87 33 41
121 22 96 41 42
119 22 94 41 43
119 21 115 41 44
107 17 137 44 44
120 15 130 44 45
120 13 133 44 46
129 19 135 42 47
129 21 140 42 48
125 20 139 40 49
126 19 133 40 49
127 17 130 32 50
130 22 130 33 51
135 23 121 32 52
135 25 102 29 53
134 26 108 35 53
135 26 104 35 54
122 24 104 38 55
129 19 126 37 56
129 15 138 38 57
123 13 146 38 58
126 14 158 40 58
123 12 165 42 59
127 12 146 35 60
128 11 180 34 61
121 9 218 33 62
131 10 217 34 62
129 9 229 31 63
134 9 213 33 64
134 9 195 31 65
135 9 198 30 66
141 10 215 31 66
132 9 209 30 67
137 8 209 30 68
139 8 225 52 69
135 10 188 49 70
136 9 198 49 70
133 9 225 64 71
130 10 218 62 72
133 10 205 64 73
127 10 208 68 74
128 11 227 73 74
128 12 227 73 75
124 14 234 75 76
130 14 205 60 77
128 12 190 59 77
129 12 197 59 78
130 12 157 47 79
126 10 158 46 80
132 5 136 36 80
131 11 137 34 81
133 11 107 29 82
135 11 97 27 82
127 13 80 25 83
129 14 80 33 84
126 15 90 37 85
125 15 71 39 85
134 22 114 55 86
137 28 126 63 87
134 28 118 62 87
133 21 119 62 88
127 20 121 62 89
137 23 132 62 89
137 30 142 71 90
136 33 164 76 91
137 33 164 73 91
129 34 171 71 92
139 35 154 65 93
131 33 151 58 93
132 33 153 59 94
135 34 154 58 95
131 34 178 66 95
129 32 174 67 96
126 28 169 69 96
122 32 143 60 97
134 33 140 63 98
134 32 129 63 98
128 29 135 63 99
128 28 125 65 99
134 27 120 64 100
134 24 129 63 101
128 18 105 48 101
138 17 90 41 102
139 19 94 39 102
135 18 103 39 103
136 17 99 39 104
136 15 106 41 104
132 18 144 47 105
133 22 145 46 105
125 23 145 46 106
140 32 141 55 106
139 37 123 61 107
122 37 119 53 107
132 32 122 41 108
134 29 121 43 108
132 22 128 41 109
134 18 121 39 109
135 17 124 44 110
137 20 127 44 110
130 15 135 40 111
129 16 160 42 112
132 18 164 37 112
133 18 201 41 112
136 18 229 48 113
133 19 229 43 114
134 18 234 48 114
134 23 232 49 114
126 23 235 61 115
139 23 265 78 115
139 26 267 79 116
132 25 255 86 116
141 26 249 86 117
138 26 263 89 117
138 24 257 85 117
139 25 269 85 118
132 28 277 84 118
141 28 262 86 119
137 28 260 83 119
133 25 274 75 119
138 23 272 74 120
137 23 263 66 120
139 21 272 68 120
138 18 273 71 121
140 23 243 67 121
146 31 287 93 121
147 32 317 102 122
145 32 317 103 122
146 34 352 108 122
142 34 349 108 122
146 36 385 119 123
141 35 393 119 123
142 36 409 124 123
145 37 412 126 123
141 30 385 115 124
147 26 379 107 124
142 23 353 98 124
145 23 352 97 124
144 29 340 114 125
140 29 336 110 125
135 31 287 102 125
138 40 263 108 125
156 52 243 113 125
154 52 201 104 125
140 53 231 113 126
148 55 232 115 126
150 63 336 145 126
160 76 345 149 126
161 74 347 132 126
160 74 372 131 126
173 76 370 130 126
171 78 411 139 126
139 70 418 133 126
155 63 418 134 127
155 51 397 117 127
138 25 382 111 127
141 28 308 92 127
129 24 299 96 127
148 30 278 99 127
149 36 223 94 127
143 38 300 113 127
157 37 272 112 127
158 38 289 115 127
150 37 302 117 127
152 34 304 119 127
153 33 329 111 127
151 39 377 130 127
145 39 384 130 127
149 40 379 127 127
154 40 384 129 127
146 29 293 101 127
148 29 293 100 127
147 29 282 98 127
144 29 278 96 127
148 29 276 91 127
143 23 220 82 127
151 15 152 44 127
152 16 113 34 127
143 13 108 32 127
148 13 134 28 127
145 13 164 36 127
150 14 168 44 127
153 13 168 44 127
151 13 163 44 127
159 15 164 44 127
157 17 164 45 127
153 18 144 43 127
158 14 122 37 127
156 13 119 35 127
162 17 115 40 127
160 18 74 35 127
152 18 35 22 127
157 18 35 22 127
151 17 32 21 127
149 17 65 30 127
149 15 72 31 127
147 14 88 31 127
153 15 106 35 126
148 16 107 35 126
149 15 107 35 126
152 14 107 35 126
150 14 114 37 126
152 13 114 37 126
149 14 117 37 126
149 12 90 27 125
153 11 90 24 125
148 11 84 24 125
148 10 70 23 125
147 9 70 24 125
138 8 66 21 124
144 8 78 31 124
140 8 71 30 124
143 8 70 30 123
142 11 71 34 123
132 12 71 34 123
137 17 78 41 123
134 16 80 41 122
138 16 75 41 122
140 17 70 40 122
138 16 72 46 122
140 16 62 40 121
135 16 80 47 121
136 16 82 47 121
141 15 79 45 120
138 14 81 46 120
139 8 72 38 120
139 7 74 38 120
136 7 74 37 120
138 6 74 37 119
134 6 72 31 119
135 6 71 30 119
136 5 35 9 119
130 6 21 9 118
133 5 18 4 118
132 4 19 4 118
137 4 20 5 117
139 5 19 5 117
130 4 19 7 117
137 4 32 9 116
134 5 33 13 116
136 7 47 31 115
144 8 55 31 115
143 8 65 32 115
149 8 66 34 114
149 8 63 33 114
147 9 63 33 113
155 9 70 34 113
151 9 69 34 113
157 9 61 34 112
160 9 66 34 112
155 8 64 20 112
157 8 61 17 111
152 8 50 14 111
154 8 45 11 111
158 8 24 11 110
152 7 24 12 110
159 8 25 15 109
157 11 25 15 109
154 10 35 21 109
158 10 38 28 108
153 9 40 28 107
160 9 64 31 107
161 8 66 31 107
159 8 64 30 106
165 10 67 31 105
160 11 67 31 105
158 12 68 30 104
160 9 66 30 104
153 9 53 22 104
162 9 59 17 103
160 10 60 17 103
156 10 44 13 102
161 10 41 13 102
154 11 39 13 101
158 9 33 10 101
157 8 32 9 101
154 4 28 12 100
161 5 18 9 100
158 5 18 9 99
152 5 16 12 99
152 5 16 13 98
147 5 17 12 98
150 5 39 21 97
145 4 46 25 97
144 5 46 26 96
151 5 46 26 95
148 5 40 23 95
146 5 38 21 94
143 5 36 21 94
143 4 41 22 93
147 4 43 22 93
142 5 43 23 92
142 6 35 19 92
143 6 31 13 91
143 5 28 7 90
143 3 29 8 90
134 3 26 8 89
136 4 49 23 89
138 4 48 23 88
136 5 73 37 87
140 7 93 51 87
137 9 106 53 86
141 9 106 53 85
142 9 105 54 85
133 8 104 54 84
136 9 104 54 83
135 9 104 53 83
136 7 81 44 82
140 6 79 44 81
135 6 74 39 81
137 6 56 22 80
137 6 21 13 80
134 7 22 12 79
140 8 34 13 78
136 8 45 21 78
140 7 45 26 77
141 7 55 37 76
136 8 57 41 75
147 9 63 41 75
145 13 74 41 74
145 13 96 42 73
150 13 98 42 73
147 14 96 41 72
148 14 89 38 71
144 12 72 28 71
148 11 76 28 70
153 13 82 25 69
150 17 86 24 69
146 19 87 23 68
147 19 88 28 67
152 25 70 34 67
151 25 50 31 66
142 22 55 29 66
156 22 78 32 65
156 19 84 32 64
145 15 84 30 64
155 13 88 30 63
153 14 88 31 62
156 17 96 35 62
158 19 99 36 61
149 18 81 26 60
161 19 76 23 60
161 21 77 23 59
150 18 68 23 59
162 22 65 26 58
163 22 65 25 57
157 20 48 16 57
155 22 48 23 56
149 29 53 28 55
162 34 47 32 55
161 36 42 32 54
156 37 42 32 54
160 36 42 32 53
159 34 43 30 52
156 25 46 22 52
146 17 41 14 51
147 13 40 14 50
151 13 46 13 49
155 23 46 21 49
146 24 41 23 48
144 25 44 27 47
151 25 44 27 47
149 24 46 26 46
140 23 47 25 45
138 22 37 24 45
142 18 37 18 44
144 19 37 19 43
146 17 36 18 42
136 15 35 20 42
146 18 40 22 41
149 17 40 18 40
134 15 41 17 40
138 14 40 17 39
140 23 57 26 38
145 26 68 28 38
144 29 81 34 37
128 27 81 33 36
132 28 83 32 36
133 28 83 30 35
125 27 82 30 34
126 27 80 31 34
122 29 79 32 33
129 29 80 32 33
129 24 73 27 32
116 23 64 26 32
121 16 30 12 31
121 16 12 11 31
122 16 14 11 30
124 16 16 11 30
117 16 15 11 30
118 16 15 11 29
118 15 14 11 29
117 17 14 12 28
122 18 16 14 28
122 16 12 13 28
126 15 12 13 27
125 14 10 10 27
124 15 10 11 27
129 15 10 11 26
125 15 11 11 26
131 14 11 10 25
132 14 11 10 25
123 4 6 5 25
128 4 6 5 24
125 6 7 7 24
127 8 8 7 24
131 8 7 6 23
127 8 7 7 23
130 8 7 7 23
128 10 9 9 22
130 13 9 9 22
134 14 10 9 22
129 14 11 10 21
135 14 11 10 21
136 14 11 9 21
134 14 11 9 20
136 18 16 14 20
131 23 20 18 20
143 28 27 26 20
144 30 28 27 19
134 26 27 27 19
143 24 26 26 19
143 21 23 23 19
143 21 33 33 18
144 28 33 33 18
138 32 35 34 18
146 32 36 38 18
145 31 47 53 17
136 28 45 50 17
144 25 44 52 17
142 24 45 52 17
142 20 43 50 17
141 14 42 48 16
135 14 38 45 16
143 12 38 46 16
141 9 38 46 16
140 9 35 37 16
142 8 19 23 15
136 8 15 22 15
137 8 14 13 15
134 9 10 13 15
133 10 10 12 15
137 9 10 12 15
130 9 10 12 15
130 8 8 9 15
129 8 6 9 14
127 8 6 9 14
130 9 7 13 14
126 9 18 15 14
130 9 20 17 14
131 8 20 16 14
128 14 27 20 14
131 13 28 18 13
128 13 28 19 13
124 17 31 27 13
128 19 31 28 13
124 18 31 28 13
132 22 34 29 13
131 24 28 29 12
127 24 28 29 12
129 25 28 29 12
120 22 24 27 12
122 22 23 29 12
121 22 25 29 11
127 18 20 21 11
129 15 19 18 11
122 14 19 19 11
127 14 24 22 10
127 17 28 23 10
114 43 49 42 10
116 43 48 42 10
116 50 54 49 9
144 69 75 70 9
144 75 79 76 9
146 76 80 76 9
165 86 90 84 8
167 87 92 86 8
155 85 89 82 8
157 82 84 78 7
156 61 66 60 7
170 64 70 68 7
169 65 70 68 7
147 60 65 64 7
168 64 69 66 6
161 65 71 68 6
143 46 54 52 6
140 39 48 46 6
138 37 44 42 6
151 41 45 43 6
150 41 45 43 6
147 41 44 42 6
152 41 42 38 6
149 40 43 37 5
140 28 34 29 5
137 29 35 29 5
145 32 39 33 5
150 30 38 32 5
149 31 38 33 5
149 30 40 37 5
149 30 40 37 5
141 33 41 36 5
145 34 41 36 5
144 32 33 31 5
151 36 39 36 5
150 31 34 30 5
139 28 30 29 5
143 28 32 28 5
141 27 31 27 5
140 27 29 24 5
145 29 31 27 5
143 23 30 23 5
146 22 30 22 5
145 22 31 25 5
129 18 25 24 4
135 16 24 24 4
131 17 23 23 4
130 17 22 23 4
131 16 22 24 4
121 15 22 25 4
127 12 17 18 4
124 15 17 20 4
127 18 17 20 4
129 18 17 20 4
132 23 21 22 4
132 23 19 19 4
130 23 20 21 3
131 22 21 21 3
134 23 25 26 3
130 23 24 27 3
133 22 24 27 3
133 23 25 28 3
129 19 24 26 3
133 19 24 26 3
127 15 20 23 3
134 14 23 24 3
135 14 22 22 3
133 14 21 23 3
135 20 24 23 2
132 20 24 25 2
135 20 24 26 2
143 30 32 42 2
138 30 32 42 2
146 31 32 42 2
144 31 33 42 2
139 30 31 42 2
143 30 32 42 2
139 30 32 42 2
141 30 30 41 2
141 30 30 40 2
137 30 30 39 2
135 18 18 16 2
130 18 18 16 2
132 17 18 16 2
133 17 18 16 2
131 18 18 16 2
137 16 16 14 2
134 15 16 13 2
139 8 11 7 2
142 9 11 8 2
134 7 18 10 2
139 6 19 10 2
138 6 20 10 2
132 5 19 9 2
137 5 19 9 2
130 8 32 13 2
135 10 45 15 2
136 10 54 15 2
133 10 55 19 2
141 13 62 19 2
138 13 80 19 2
133 12 81 21 3
134 16 82 23 3
128 19 83 25 3
135 22 83 25 3
135 23 78 23 3
129 22 77 21 3
132 21 67 20 4
127 22 67 18 4
129 20 65 20 4
128 20 45 22 4
126 22 53 25 4
135 24 63 26 5
135 22 59 24 5
136 22 80 38 5
135 25 106 45 5
130 27 116 50 5
136 27 116 50 6
134 28 116 51 6
129 27 118 49 6
134 27 120 48 7
133 25 115 45 7
136 22 104 42 7
133 20 105 40 7
128 20 102 34 8
134 14 82 30 8
132 11 57 21 8
131 12 40 18 9
131 9 32 15 9
129 4 29 12 9
131 5 28 15 10
126 7 86 30 10
126 7 157 47 11
127 6 186 49 11
125 7 184 49 11
128 6 190 48 12
125 6 190 49 12
126 6 193 50 13
129 6 192 49 13
125 5 193 46 14
131 5 191 47 14
129 5 184 44 15
128 5 145 29 15
133 5 96 28 16
127 5 85 27 16
132 5 81 28 17
131 4 75 26 17
129 4 75 23 18
133 4 96 26 19
129 3 110 26 19
131 3 138 33 20
133 5 190 38 20
124 9 196 38 21
134 14 197 37 22
133 15 201 37 22
128 14 198 37 23
132 13 198 37 24
131 14 195 36 24
134 14 178 31 25
132 17 161 28 26
127 19 153 22 26
135 21 87 15 27
135 24 53 23 28
128 27 52 35 28
129 28 51 42 29
139 30 52 37 30
136 28 78 42 30
125 20 79 41 31
133 16 83 40 32
135 15 100 41 33
130 15 109 39 34
131 16 109 36 34
130 19 106 37 35
138 23 120 40 36
139 24 122 36 37
126 20 124 37 38
137 20 107 33 38
137 18 107 34 39
129 15 107 34 40
137 12 102 29 41
136 8 141 49 41
136 7 130 47 42
136 8 141 48 43
130 8 149 52 44
136 9 148 52 45
131 10 147 53 46
130 10 148 54 46
134 10 142 52 47
129 9 141 52 48
131 5 144 53 49
128 4 86 26 50
131 3 66 18 50
136 4 141 43 51
134 5 151 42 52
130 5 151 43 53
132 6 156 47 53
130 5 161 49 54
136 6 182 57 55
135 8 191 58 56
131 8 191 58 57
134 9 195 62 57
131 10 195 62 58
133 9 156 52 59
125 8 140 49 59
134 8 144 49 60
132 8 141 45 61
126 8 144 45 62
130 7 118 34 62
127 7 94 29 63
133 7 95 30 64
135 5 87 22 65
129 7 87 21 65
137 7 89 16 66
137 6 78 17 67
138 6 66 27 67
142 7 89 31 68
139 7 81 30 69
141 8 80 30 69
143 8 83 30 70
140 8 92 33 71
145 10 78 32 71
142 10 107 40 72
141 11 109 42 73
145 11 108 40 73
136 11 108 38 74
142 10 97 37 75
140 11 116 36 75
139 10 118 36 76
142 10 134 39 77
136 10 136 39 78
141 9 145 40 78
140 7 136 34 79
142 11 166 45 80
146 12 165 46 80
141 12 179 48 81
142 12 184 49 81
146 12 200 50 82
142 11 248 68 83
148 10 239 66 83
146 14 256 73 84
147 15 245 72 85
149 15 261 73 86
139 14 254 67 86
149 13 271 69 87
149 14 281 74 88
153 16 279 80 88
156 17 260 83 89
151 16 207 68 89
153 16 207 68 90
155 14 186 60 91
151 13 190 59 91
159 13 154 58 92
157 12 165 58 93
151 12 163 66 93
154 10 155 62 94
146 8 154 58 95
147 8 197 59 95
145 9 200 62 96
143 8 201 63 97
148 12 199 69 97
141 12 193 71 98
145 12 193 78 98
144 12 180 77 99
144 12 167 70 99
148 9 121 57 100
142 14 138 62 101
145 16 80 61 101
147 16 169 69 102
143 16 174 71 102
146 15 210 67 103
142 19 230 69 104
153 23 252 66 104
154 24 252 67 105
141 32 293 81 105
163 49 314 96 106
163 49 319 101 106
167 61 345 115 107
167 78 311 108 107
161 82 310 103 108
174 86 296 107 108
174 89 291 119 109
162 88 278 119 109
166 88 275 118 110
166 81 233 108 110
149 56 186 78 111
155 57 212 90 111
162 60 186 85 112
167 56 187 85 112
167 58 168 87 113
170 59 168 87 113
172 58 159 75 114
162 57 168 76 114
167 49 175 70 115
169 40 176 54 115
171 54 237 84 115
168 58 233 88 116
151 55 240 89 116
161 49 270 93 117
162 41 267 92 117
149 35 287 95 118
156 31 287 94 118
154 32 293 100 118
151 32 279 99 119
153 29 260 95 119
138 28 245 89 120
143 22 216 80 120
141 23 203 77 120
146 36 215 95 121
149 38 208 90 121
142 40 228 86 121
140 40 251 88 122
139 40 304 89 122
137 40 305 89 122
142 41 315 92 123
139 38 305 90 123
143 38 302 84 123
145 38 310 84 124
138 24 298 65 124
151 20 309 67 124
146 21 265 67 124
155 22 254 73 125
156 19 187 63 125
150 22 184 65 125
157 25 232 88 125
156 25 232 89 126
151 27 297 97 126
158 35 300 102 126
150 36 312 107 126
139 32 313 110 126
138 30 316 110 126
145 39 342 117 127
149 39 342 116 127
145 44 360 121 127
142 39 321 102 127
146 39 318 102 127
147 38 277 96 127
145 36 270 95 127
142 36 259 87 128
148 35 243 77 128
152 35 237 78 128
139 23 188 56 128
139 21 197 56 128
138 15 167 49 128
139 15 163 44 128
141 17 140 43 128
135 17 138 52 128
141 18 134 48 128
140 17 133 46 128
136 17 141 50 128
149 17 145 41 128
142 16 147 44 128
150 16 124 43 128
151 16 124 43 128
142 16 128 45 128
152 13 134 49 128
148 13 136 41 128
143 12 132 39 128
147 8 103 35 128
145 14 107 39 128
139 16 103 40 128
136 16 102 39 128
129 21 84 53 128
138 21 77 50 128
139 21 71 50 128
137 21 79 48 128
136 21 84 48 128
137 21 85 49 128
141 21 82 48 128
133 14 80 42 128
135 14 80 42 128
138 14 81 41 128
141 9 82 26 128
144 10 85 27 128
140 9 88 27 128
140 10 76 27 128
144 10 63 27 128
138 10 57 22 128
142 9 70 24 128
141 10 61 28 128
139 8 64 28 128
140 13 68 28 128
134 12 72 25 128
141 15 68 22 128
141 15 62 23 128
138 15 63 23 128
145 14 60 25 128
143 12 85 18 128
145 12 81 20 128
147 14 80 19 128
139 16 83 22 128
149 16 81 23 128
147 18 80 24 128
141 15 81 23 127
148 15 80 23 127
144 15 82 24 127
149 14 82 20 127
148 10 50 9 127
151 9 40 9 127
157 10 38 12 127
156 11 34 13 127
156 11 57 14 127
159 8 58 14 126
155 9 60 16 126
157 8 62 16 126
153 8 60 16 126
154 8 65 17 126
157 8 63 18 126
148 5 62 18 125
153 5 59 18 125
151 5 50 19 125
152 7 49 22 125
156 8 52 21 124
149 7 50 20 124
157 7 44 20 124
157 8 46 20 123
153 7 43 19 123
157 7 45 17 123
152 7 36 15 123
150 7 40 15 122
152 5 49 13 122
145 4 45 10 122
151 4 45 11 121
149 5 46 15 121
146 7 47 15 120
149 7 46 15 120
145 9 42 17 120
151 10 36 16 119
149 11 48 14 119
148 11 47 15 118
155 11 38 15 118
150 11 48 15 117
157 12 49 15 117
157 12 50 13 116
154 12 51 14 116
156 13 51 14 115
150 11 49 9 115
145 10 49 9 114
148 10 40 9 114
145 10 46 10 113
147 9 46 10 113
145 9 37 10 112
139 7 27 9 112
144 6 27 9 111
139 6 28 9 111
147 6 29 9 110
146 6 39 16 109
146 7 45 17 109
148 7 57 18 108
142 7 52 18 107
141 7 64 22 107
141 12 82 28 106
137 12 82 27 105
139 12 85 31 105
134 12 87 32 104
136 11 85 32 104
140 10 90 32 103
136 10 90 32 102
140 10 81 31 102
138 10 77 30 101
141 10 74 28 100
143 6 61 22 100
136 5 61 22 99
144 3 58 16 98
144 3 52 12 98
136 6 60 18 97
140 6 70 16 96
138 6 71 16 96
144 6 83 18 95
144 6 90 18 94
141 6 88 20 94
149 6 83 20 93
146 6 81 20 92
141 5 80 20 91
147 5 82 22 91
144 4 78 20 90
151 4 60 19 89
147 4 56 18 89
144 5 47 17 88
147 5 31 16 87
139 4 28 14 86
146 5 26 12 86
146 5 27 9 85
144 5 21 7 84
149 6 36 13 83
146 8 43 14 83
149 8 55 14 82
150 11 56 17 81
143 15 56 17 80
161 19 51 17 80
161 22 46 25 79
152 22 47 30 78
158 21 47 31 77
160 20 47 33 77
159 16 51 30 76
154 12 56 28 75
151 11 41 26 74
158 12 35 20 74
156 12 35 17 73
150 10 35 16 72
149 6 36 13 71
154 6 35 11 71
153 6 69 17 70
144 4 85 20 69
149 5 88 20 68
150 6 82 19 68
142 6 79 19 67
146 7 82 20 66
143 7 78 18 65
142 7 75 17 65
148 9 68 13 64
142 9 64 14 63
147 10 53 15 63
146 9 45 13 62
136 9 41 11 61
143 10 39 11 61
140 10 41 11 60
139 9 41 11 59
140 9 43 11 59
138 9 54 11 58
136 9 49 10 57
129 9 48 10 57
134 9 48 9 56
135 9 51 9 55
125 9 53 8 54
137 8 52 10 54
138 9 45 12 53
126 9 38 11 52
131 9 45 12 52
130 9 40 12 51
128 7 43 12 50
132 8 48 14 49
130 8 48 14 49
150 8 44 14 48
193 8 30 13 47
194 9 19 12 47
225 8 25 9 46
249 8 25 9 45
232 11 27 10 44
213 10 27 10 44
218 10 43 11 43
193 10 67 11 42
161 13 69 11 42
161 13 69 11 41
156 18 68 15 40
192 19 71 15 40
167 23 71 18 39
130 24 70 20 38
170 21 65 19 38
168 18 61 16 37
140 16 60 16 37
147 12 38 16 36
148 15 33 18 36
145 14 33 17 35
137 15 32 17 34
130 16 26 18 34
143 16 26 17 33
148 15 24 17 33
128 16 21 17 32
129 16 21 17 32
128 23 21 23 31
130 25 20 26 31
125 26 19 27 30
123 27 19 28 30
129 25 19 26 29
129 19 16 22 29
128 17 17 22 28
124 13 12 16 28
127 15 13 17 27
132 12 8 13 27
129 11 8 10 26
126 11 9 9 26
128 10 8 6 25
128 10 8 6 25
129 11 8 7 24
125 12 8 7 23
128 12 9 8 23
129 12 9 8 22
119 6 6 8 22
124 7 6 9 21
124 8 7 10 21
125 8 6 10 20
126 15 8 13 20
119 15 8 13 19
128 16 9 13 19
128 16 9 13 18
124 17 11 13 18
134 19 14 16 17
130 19 15 17 17
131 19 16 18 16
132 21 19 18 16
125 22 30 25 15
136 20 29 23 15
135 20 29 23 15
128 18 28 25 14
132 18 29 25 14
131 19 30 30 13
123 17 25 23 13
121 17 26 26 13
118 17 26 26 12
128 23 32 33 12
130 27 27 34 12
134 28 28 34 11
135 28 28 34 11
135 28 28 32 11
139 28 27 33 10
134 26 22 24 10
141 19 19 21 10
143 18 19 21 10
140 19 18 20 10
139 16 14 17 9
133 9 9 13 9
129 8 9 12 9
131 8 9 13 9
124 8 13 16 9
126 8 14 14 9
125 8 14 14 9
118 8 18 17 8
123 7 19 19 8
118 7 19 18 8
118 8 19 19 8
118 10 19 20 8
115 9 19 20 8
120 11 19 20 7
117 14 18 21 7
117 15 19 24 7
120 15 22 23 7
119 14 23 27 7
125 14 21 26 7
123 14 22 27 6
128 12 20 26 6
134 13 20 27 6
128 12 19 26 6
132 12 20 27 5
131 10 19 25 5
132 10 19 22 5
139 11 13 23 5
136 12 10 17 4
128 24 15 21 4
128 23 16 19 4
119 25 17 19 4
129 30 28 26 3
131 35 29 28 3
128 35 30 30 3
131 35 30 30 3
126 35 32 30 3
133 37 35 31 2
131 37 37 30 2
135 29 33 24 2
143 32 38 31 2
141 32 38 31 2
141 28 30 26 2
137 20 25 24 1
138 20 19 19 1
142 18 18 17 1
137 17 19 16 1
132 16 19 16 1
135 14 21 20 1
132 14 21 20 0
136 9 13 16 0
134 9 26 33 0
132 8 24 33 0
136 9 25 35 0
130 9 25 36 0
134 8 26 35 0
134 8 27 37 0
130 9 28 36 0
133 9 27 36 0
130 11 26 35 0
131 10 26 31 0
131 10 15 21 0
127 10 15 21 0
132 10 14 18 0
128 9 12 17 0
128 8 10 19 0
132 10 12 15 0
131 10 14 16 0
135 11 18 19 0
132 9 15 16 0
131 8 16 16 0
135 8 16 17 0
129 7 13 16 0
133 7 12 15 0
132 7 17 15 0
128 6 17 15 0
133 6 16 17 0
127 11 19 22 0
130 11 16 20 0
130 12 16 20 0
127 13 13 16 0
137 15 17 19 0
134 15 16 19 0
137 16 17 22 0
138 19 18 24 0
132 25 21 29 0
133 25 23 29 0
132 24 23 28 0
134 24 22 27 0
140 23 22 28 0
136 23 22 28 0
136 20 18 25 0
135 19 17 24 0
132 19 17 23 0
137 18 10 14 0
137 13 10 10 0
141 13 8 10 0
143 13 9 10 0
137 12 9 11 0
139 13 9 10 0
135 13 9 12 0
137 14 22 15 0
140 14 26 14 0
134 12 27 14 0
139 11 26 12 0
137 11 34 15 0
138 11 43 15 0
141 12 45 15 0
136 12 45 15 0
141 11 49 15 0
141 11 50 14 0
134 9 47 11 0
138 10 46 10 0
134 8 44 10 0
139 10 46 14 0
140 10 54 14 0
131 8 51 13 1
137 9 47 13 1
134 8 50 14 1
131 7 60 14 1
134 7 71 14 1
130 7 74 15 1
134 9 73 15 2
133 9 82 16 2
127 8 87 15 2
133 8 83 14 3
128 8 79 13 3
129 6 77 12 3
130 6 77 11 4
129 7 71 11 4
132 8 59 12 4
129 8 61 15 5
129 7 69 16 5
131 6 58 15 6
126 6 42 12 6
131 6 50 21 6
129 6 50 21 7
128 7 53 21 7
132 6 52 21 8
127 6 54 22 8
131 6 57 21 9
130 6 54 20 9
128 6 57 22 9
133 6 56 22 10
129 6 60 24 10
130 6 66 20 11
131 6 73 21 11
131 9 68 22 12
132 13 69 22 12
127 13 94 23 13
130 13 113 23 13
135 14 117 28 13
130 13 136 28 14
134 13 161 32 14
132 13 168 32 15
132 13 166 32 15
133 15 164 32 16
123 13 164 32 16
128 10 171 34 17
129 8 175 34 18
122 7 171 39 18
122 8 166 36 19
116 10 151 34 19
124 14 114 31 20
124 15 90 30 21
117 15 111 36 21
123 14 127 38 22
122 14 132 44 23
125 14 125 41 23
127 13 115 45 24
121 17 112 40 25
135 24 112 44 25
135 28 112 47 26
124 26 114 53 27
132 25 133 56 28
133 23 120 50 28
131 20 108 47 29
129 16 105 36 30
128 15 111 34 31
139 17 109 34 32
136 21 102 35 32
133 22 111 36 33
137 21 105 35 34
140 22 113 29 35
136 21 114 21 36
130 17 115 24 36
138 13 136 33 37
139 14 138 34 38
130 11 131 31 39
137 11 125 30 40
136 11 132 32 40
134 12 127 34 41
136 13 127 34 42
131 15 113 28 43
135 15 80 28 44
136 15 81 28 44
135 15 59 22 45
138 13 49 21 46
134 12 49 21 47
134 9 54 26 48
137 8 29 24 48
134 7 34 22 49
134 6 84 31 50
133 4 84 30 51
136 5 117 33 52
135 9 148 34 52
122 10 152 35 53
133 10 196 45 54
133 10 196 44 55
122 9 222 45 56
125 9 235 49 56
119 9 237 49 57
129 8 232 41 58
129 8 235 46 59
124 9 224 43 59
132 8 205 43 60
130 8 204 42 61
125 8 160 31 62
127 8 158 31 62
128 11 130 32 63
132 12 120 32 64
130 13 114 32 65
139 16 118 43 65
143 17 133 49 66
136 15 146 52 67
140 13 141 51 68
141 11 145 52 68
141 13 160 55 69
146 15 170 58 70
138 16 168 57 71
145 18 189 55 71
146 17 192 55 72
133 14 216 56 73
141 13 217 51 74
139 10 220 54 74
140 9 231 58 75
143 7 234 58 76
137 8 253 63 77
140 8 246 61 77
140 11 252 63 78
135 11 221 62 79
142 13 207 58 80
137 14 191 55 80
146 16 180 52 81
145 19 175 46 82
137 19 200 44 82
144 19 193 44 83
141 18 182 42 84
151 22 194 41 84
151 23 203 47 85
150 23 213 50 86
150 23 239 63 86
147 25 248 72 87
147 24 262 76 88
152 22 257 75 88
150 22 237 74 89
151 22 248 75 90
149 22 247 73 90
143 18 244 77 91
150 14 228 71 92
144 13 216 67 92
148 12 206 61 93
149 9 200 52 94
142 6 201 49 94
147 9 222 49 95
146 15 215 54 95
142 18 203 52 96
148 18 195 52 97
142 18 191 47 97
144 18 191 46 98
139 17 191 47 98
137 19 180 48 99
138 19 167 47 100
126 19 174 58 100
139 24 147 63 101
138 27 154 61 101
143 27 175 67 102
140 31 179 69 102
135 37 185 76 103
146 43 209 85 104
146 45 206 85 104
148 45 219 85 105
157 45 217 86 105
156 44 199 75 106
145 37 171 60 106
145 27 180 57 107
141 27 187 65 107
151 28 184 67 108
153 28 195 66 108
144 21 161 54 109
157 26 162 63 109
162 40 174 74 110
152 44 176 75 110
151 44 178 81 111
146 53 191 97 111
171 66 219 106 112
168 69 198 104 112
166 69 198 104 112
166 70 200 106 113
162 70 199 106 113
151 69 197 94 114
129 60 167 78 114
156 54 160 82 115
153 51 170 83 115
145 51 165 77 115
145 51 137 74 116
145 51 132 74 116
141 49 136 74 117
144 36 113 56 117
146 31 118 54 117
174 36 132 50 118
174 41 119 51 118
154 37 157 43 118
173 40 160 45 119
175 39 157 45 119
167 30 157 42 119
169 23 158 41 120
169 19 158 39 120
169 17 195 56 120
161 16 186 56 121
153 16 159 49 121
155 17 157 47 121
155 16 133 46 122
157 19 162 54 122
156 19 154 54 122
153 22 196 63 122
156 22 205 63 123
152 21 198 62 123
158 22 172 50 123
158 20 176 50 123
155 21 194 54 124
162 21 197 52 124
160 20 198 55 124
154 10 144 37 124
155 20 192 63 124
150 19 167 62 125
161 19 180 67 125
159 20 179 67 125
156 19 182 66 125
161 23 180 69 125
155 22 157 64 125
162 21 125 56 126
161 22 153 59 126
159 24 191 68 126
171 19 167 61 126
163 19 181 56 126
162 19 178 53 126
162 18 182 56 126
159 23 218 64 126
159 17 216 61 127
156 17 209 61 127
154 17 210 61 127
156 17 208 60 127
152 16 187 53 127
155 16 185 45 127
155 16 164 44 127
154 14 148 53 127
161 14 147 55 127
156 9 92 48 127
160 9 115 46 127
160 10 108 46 127
154 12 89 46 127
160 13 96 47 127
157 12 96 48 127
154 12 89 48 127
155 14 130 55 127
139 19 132 44 127
133 25 149 46 128
126 28 152 49 128
136 30 135 50 128
137 30 142 52 128
138 34 142 52 128
134 35 140 51 128
131 36 139 50 128
128 36 149 49 128
129 35 131 48 128
128 37 128 48 128
133 35 124 46 128
134 33 124 45 128
123 34 145 47 128
125 33 143 46 128
118 30 145 50 128
130 32 198 60 128
130 31 203 60 128
125 33 208 69 128
130 33 206 62 128
130 27 203 62 128
138 26 199 62 128
139 25 196 58 128
134 21 186 56 128
144 23 193 61 128
140 23 190 58 128
137 17 152 53 128
145 17 137 53 128
143 16 139 49 128
152 15 137 51 128
153 16 137 50 128
152 16 139 52 128
161 16 140 54 128
155 17 136 55 128
159 14 115 48 128
162 13 120 51 128
159 13 89 42 128
163 11 89 41 128
160 11 82 39 128
156 12 79 36 128
160 12 77 36 128
153 12 73 32 128
158 11 75 24 127
157 10 63 17 127
155 10 76 22 127
162 11 75 25 127
155 8 79 24 127
155 11 88 31 127
157 11 87 30 127
154 11 77 29 127
162 11 76 30 127
157 9 77 30 127
162 11 75 31 127
165 10 76 34 127
159 9 61 25 127
165 9 63 25 126
163 9 63 26 126
164 9 48 22 126
169 9 51 22 126
164 9 50 21 126
169 10 49 22 126
169 10 48 24 125
157 8 48 23 125
160 8 49 28 125
154 8 51 33 125
158 8 46 31 124
158 9 46 31 124
154 8 47 31 124
159 8 45 31 124
155 11 45 31 123
152 10 45 30 123
155 9 43 28 123
155 7 34 20 123
160 7 36 17 122
158 7 27 9 122
154 7 33 20 122
161 7 26 23 122
154 8 29 22 121
158 8 58 31 121
158 8 69 31 121
152 8 72 32 120
157 8 74 32 120
155 9 72 32 120
156 10 71 32 119
156 10 70 32 119
149 9 64 25 118
153 10 64 25 118
150 8 66 25 118
148 8 53 16 117
149 9 36 16 117
143 9 32 15 116
143 9 29 15 116
139 9 43 19 115
135 8 44 19 115
138 8 43 21 114
133 8 38 17 114
134 9 43 18 113
134 10 52 18 113
125 13 56 18 112
137 15 59 18 112
136 16 61 20 111
140 16 61 20 111
141 15 50 19 110
137 15 44 18 110
146 13 45 13 109
142 13 46 13 109
139 14 44 15 108
145 16 37 13 107
146 17 32 19 107
141 14 20 19 106
136 11 25 19 106
139 11 25 19 105
143 9 28 19 105
137 8 29 19 104
144 9 28 19 103
147 10 45 21 103
145 10 50 24 102
151 10 57 24 101
145 9 87 24 101
152 10 95 24 100
153 10 91 24 99
141 10 91 25 98
149 11 91 24 98
149 12 91 23 97
140 10 92 22 96
144 11 79 22 96
141 11 68 19 95
148 10 71 19 94
147 9 46 16 94
146 10 29 17 93
158 10 29 14 92
156 10 29 14 92
157 9 32 14 91
158 9 47 16 91
154 9 47 16 90
161 8 59 14 89
157 8 61 18 89
155 8 61 19 88
160 8 69 19 87
155 8 73 25 87
156 9 118 47 86
154 10 129 47 85
156 10 127 47 85
161 9 115 46 84
155 9 121 47 83
156 9 123 47 83
156 9 125 44 82
152 9 125 42 81
156 9 116 41 81
149 6 117 40 80
152 5 79 12 80
153 4 45 8 79
147 4 18 6 79
152 4 19 6 78
150 3 16 8 78
153 4 19 7 77
157 4 33 7 77
149 3 33 7 76
154 4 38 8 76
152 4 38 8 75
145 5 38 8 75
151 4 43 10 74
146 5 45 11 73
149 5 38 10 73
149 8 24 11 72
140 8 39 12 72
150 8 41 12 71
147 9 41 10 70
140 11 40 12 70
143 10 40 12 69
142 9 42 12 68
143 7 39 12 68
139 7 37 11 67
135 9 31 12 66
140 10 28 16 65
135 10 24 15 65
129 12 31 15 64
129 12 44 17 63
129 11 54 15 62
131 9 55 15 62
125 8 54 15 61
126 8 52 15 60
127 9 48 17 60
125 8 51 17 59
132 9 51 13 58
131 12 50 13 57
132 13 50 14 56
134 12 46 10 56
133 13 38 9 55
134 12 33 9 54
130 10 27 8 53
137 16 30 10 53
142 18 32 11 52
137 18 32 11 51
132 25 43 19 50
131 27 81 30 49
138 29 100 34 49
141 28 99 33 48
135 27 95 32 47
139 27 96 32 46
140 26 95 31 46
134 15 87 25 45
138 16 79 25 44
135 16 70 23 43
142 13 72 23 43
142 12 62 17 42
128 6 43 10 41
135 6 44 11 41
134 13 48 12 40
139 18 47 15 39
140 23 46 20 39
131 23 42 20 38
126 28 37 28 37
125 28 33 27 37
125 30 32 29 36
135 32 31 30 36
135 33 30 31 35
136 33 32 31 35
136 30 40 30 34
122 28 50 29 33
132 25 50 24 33
131 25 50 24 32
139 20 46 17 32
143 20 46 18 31
137 16 43 15 31
137 13 42 13 30
133 12 42 13 30
130 12 45 10 29
136 12 38 10 29
135 12 15 8 28
135 8 12 8 28
135 9 14 14 27
131 7 13 14 27
138 10 13 14 27
133 11 15 15 26
131 10 17 17 26
132 10 17 16 25
125 12 18 17 25
126 11 16 16 24
125 16 22 18 24
120 17 20 18 23
123 17 20 18 23
117 17 22 18 22
117 15 19 14 22
117 15 20 15 22
116 14 20 15 21
123 15 20 17 21
121 15 19 19 20
126 14 19 18 20
125 11 14 16 19
126 9 12 14 19
131 9 12 13 19
128 10 14 16 18
129 10 20 21 18
132 12 21 23 17
129 12 21 23 17
129 12 21 26 17
125 13 21 22 16
123 13 22 25 16
127 13 22 24 16
120 14 23 26 15
123 15 23 25 15
122 12 18 20 15
115 12 15 20 14
115 16 16 23 14
109 16 16 23 14
115 16 17 21 13
116 16 18 21 13
114 15 18 22 13
118 15 17 21 12
116 13 16 19 12
117 11 18 26 12
119 12 19 26 12
121 13 20 26 11
128 12 19 25 11
127 14 21 27 11
124 14 21 26 10
128 12 24 28 10
126 13 25 27 10
129 14 25 26 9
128 14 24 25 9
132 20 41 36 9
139 21 42 40 8
133 19 42 39 8
136 19 44 40 8
139 22 44 40 7
137 22 44 41 7
141 22 44 41 7
137 21 43 41 7
142 21 44 41 6
144 21 44 40 6
132 11 19 19 6
134 11 17 15 5
132 11 16 16 5
132 13 14 15 5
134 10 14 14 4
131 11 14 12 4
135 11 9 11 4
135 11 12 13 4
131 12 14 21 4
137 11 14 21 3
138 19 22 26 3
137 19 22 28 3
140 20 27 35 3
135 20 31 36 3
145 23 33 37 2
142 25 35 38 2
142 25 35 38 2
146 26 34 37 2
141 26 33 33 2
144 26 33 33 2
138 18 27 30 1
141 18 27 28 1
141 14 17 12 1
135 14 14 18 1
132 14 16 22 1
131 11 14 22 1
129 12 15 24 1
133 12 16 24 1
128 12 26 34 0
132 13 27 35 0
134 14 27 35 0
126 12 26 34 0
131 11 26 32 0
129 10 26 24 0
130 9 25 24 0
132 10 23 25 0
124 15 25 26 0
126 15 23 24 0
125 14 14 14 0
120 13 13 17 0
121 17 13 20 0
116 19 19 26 0
125 20 19 28 0
125 20 19 28 0
121 21 19 28 0
127 20 18 28 0
125 13 13 25 0
130 16 16 26 0
131 22 22 29 0
126 24 22 25 0
135 22 21 24 0
134 20 18 19 0
130 16 19 15 0
135 15 18 13 0
131 15 18 13 0
136 13 18 14 0
136 13 18 14 0
129 14 19 17 0
136 11 14 14 0
134 12 22 22 0
132 12 22 21 0
133 13 23 21 0
129 13 21 21 0
132 12 21 21 0
130 14 21 21 0
129 14 21 21 0
132 9 20 19 0
132 11 20 19 0
135 11 20 19 0
132 10 14 7 0
133 9 21 10 0
140 11 36 10 0
135 11 36 9 0
138 11 42 12 0
137 12 82 14 0
133 12 101 14 0
138 12 106 14 0
132 11 105 14 0
135 11 106 14 0
137 11 105 14 0
133 10 102 11 0
138 12 97 10 0
134 11 97 10 1
134 12 103 8 1
138 8 84 5 1
135 8 55 5 1
137 8 38 5 1
136 8 35 7 2
136 7 35 7 2
139 7 35 9 2
134 7 54 9 2
134 5 75 11 3
134 5 79 11 3
132 5 72 11 3
137 6 71 12 4
134 8 75 15 4
134 8 77 15 4
136 8 76 14 5
128 10 75 19 5
131 10 75 18 5
128 10 71 18 6
126 10 50 18 6
130 10 23 18 7
125 10 29 18 7
125 9 39 17 7
123 6 37 14 8
120 7 37 15 8
125 7 37 16 9
124 5 37 14 9
122 5 37 15 9
122 5 35 15 10
121 5 31 15 10
123 6 31 15 11
118 6 47 17 11
122 9 44 17 12
124 10 57 18 12
118 12 89 24 12
120 12 97 24 13
118 13 98 24 13
125 14 100 25 14
127 14 109 27 14
121 14 117 30 15
128 13 118 31 15
128 13 126 35 16
123 12 151 39 17
129 10 152 37 17
127 5 135 32 18
129 5 127 32 18
129 5 127 33 19
124 4 127 34 20
131 7 121 32 20
129 9 119 32 21
125 10 122 33 22
129 11 109 31 22
127 10 66 25 23
131 11 83 33 23
128 13 103 34 24
127 15 108 40 25
134 17 109 38 25
135 22 118 37 26
130 26 113 37 27
128 24 101 32 28
132 21 102 31 28
136 19 101 24 29
128 17 118 23 30
131 17 139 23 30
133 17 148 30 31
130 18 151 39 32
132 19 157 38 33
126 19 163 42 33
140 14 171 44 34
141 14 177 51 35
130 13 175 52 35
136 15 175 53 36
135 16 161 49 37
129 14 125 42 38
134 11 98 32 38
131 10 112 36 39
132 9 108 40 40
131 13 107 40 41
123 13 98 40 41
123 13 91 34 42
119 13 92 34 43
119 12 109 36 44
122 10 113 37 45
129 10 146 37 45
126 10 143 34 46
123 10 170 37 47
126 10 178 34 48
126 8 185 41 49
122 8 215 47 49
130 8 216 47 50
130 8 266 70 51
130 7 263 70 52
132 10 267 69 52
123 8 260 70 53
132 10 258 70 54
132 10 251 67 55
129 10 251 68 56
135 10 241 64 56
130 11 221 61 57
128 11 232 62 58
129 11 177 35 58
125 11 176 33 59
127 7 185 39 60
123 7 190 41 61
126 8 199 49 61
128 9 218 62 62
123 10 210 65 63
125 10 216 68 63
125 9 205 67 64
126 9 218 65 65
135 9 219 66 65
129 9 244 74 66
132 8 249 72 67
132 9 238 67 68
130 9 256 68 68
134 9 240 63 69
127 9 294 72 70
128 9 311 71 70
128 9 314 71 71
122 9 321 78 72
127 7 318 76 73
125 7 305 71 73
128 9 299 70 74
129 9 290 68 75
121 6 273 65 75
132 6 265 60 76
132 6 219 48 77
128 9 175 48 78
138 9 195 54 78
137 9 155 44 79
132 9 154 44 80
134 10 153 49 80
135 10 138 49 81
140 10 138 49 82
137 10 123 45 82
135 10 121 46 83
143 11 113 56 84
153 10 102 49 84
154 11 78 45 85
151 12 116 56 86
153 12 115 56 86
159 12 179 70 87
151 10 197 72 88
159 11 196 71 88
160 13 208 79 89
158 12 214 81 90
167 14 215 76 91
157 16 226 76 91
153 17 256 77 92
154 14 245 70 92
152 16 264 71 93
152 17 289 70 94
147 16 293 75 94
148 17 299 78 95
152 15 298 72 96
142 13 301 72 96
145 13 300 73 97
143 12 297 74 98
146 14 272 72 98
150 15 273 67 99
141 23 266 75 100
147 27 184 77 100
147 30 178 63 101
140 30 178 62 102
150 30 185 62 102
147 30 172 57 103
144 29 209 73 103
145 30 225 80 104
143 30 236 85 105
142 32 297 101 105
141 30 297 99 106
138 28 314 90 106
148 28 310 91 107
145 28 348 99 108
146 28 356 103 108
151 33 370 109 109
172 55 367 123 109
169 67 352 126 110
161 64 345 121 110
161 65 286 111 111
169 72 285 111 111
175 75 271 122 112
174 79 256 123 112
172 88 221 120 113
186 95 212 117 113
180 96 194 117 114
139 79 226 97 114
151 41 226 72 115
152 24 239 66 115
156 28 252 70 116
158 27 274 72 116
153 25 290 71 117
161 38 296 90 117
163 51 317 114 117
144 55 302 122 118
163 52 321 117 118
169 47 287 101 119
162 45 291 104 119
158 40 303 108 119
163 40 292 109 120
160 31 265 86 120
151 16 227 70 120
152 16 243 68 121
154 12 241 57 121
151 12 239 54 121
161 11 205 47 122
157 11 216 48 122
160 14 215 46 122
165 13 201 47 123
157 11 203 46 123
170 15 220 57 123
169 20 235 60 123
169 20 233 73 124
177 21 237 77 124
175 20 237 79 124
167 22 272 94 124
171 23 254 91 125
161 28 271 93 125
167 29 274 90 125
165 29 272 89 125
168 34 329 108 125
172 34 325 107 125
163 33 322 98 126
166 36 331 106 126
166 36 334 106 126
166 34 334 100 126
173 35 352 103 126
170 33 339 99 126
171 32 333 99 126
171 31 335 99 126
161 26 272 76 126
165 24 274 78 127
162 28 271 81 127
166 24 237 64 127
170 24 231 63 127
163 24 186 59 127
169 21 147 55 127
166 21 150 55 127
160 28 160 59 127
163 29 161 68 127
154 29 162 74 127
160 28 147 69 127
158 25 145 74 127
159 26 146 70 127
166 26 148 71 127
161 28 144 69 127
150 27 146 70 127
151 28 140 74 127
147 20 128 69 127
155 19 138 61 127
154 17 128 46 127
152 18 113 53 127
154 18 126 47 127
143 16 118 44 127
142 16 117 44 127
140 13 119 44 127
144 13 117 44 127
148 12 99 28 127
146 14 110 38 127
145 15 126 41 127
144 15 125 41 127
142 16 124 37 127
144 16 105 33 127
137 16 105 31 127
136 17 112 32 127
137 16 108 30 127
131 17 101 29 127
136 15 87 31 127
134 14 85 25 127
137 16 59 23 127
138 17 62 24 127
131 16 60 23 127
141 16 64 25 127
140 16 65 25 127
141 16 52 24 127
144 16 53 24 127
139 16 55 20 127
143 14 49 14 127
142 14 54 15 127
