2236,2044,2047,2050,0000
2041,2097,2064,2067,0000
1889,2050,2038,2046,0000
2205,2060,2040,2050,0000
2111,2080,2046,2048,0000
1861,2051,2048,2088,0000
2132,2057,2046,2036,0000
2186,2066,2003,2017,0000
1893,2073,2051,2053,0000
2054,2075,2056,2048,0000
2216,2051,2028,2050,0000
1954,2069,2056,2052,0000
1974,2084,2069,2099,0000
2223,2073,2068,2080,0000
2050,2077,2074,2089,0000
1917,2061,2054,2058,0000
2186,2061,2052,2062,0000
2086,2031,2028,2033,0000
1895,2060,2048,2052,0000
2135,2069,2042,2049,0000
2170,2055,2041,2072,0000
1930,2066,2056,2059,0000
2031,2069,2070,2070,0000
2205,2063,2059,2045,0000
1990,2068,2067,2080,0000
1962,2071,2053,2109,0000
2222,2081,2053,2078,0000
2047,2052,2031,2044,0000
1904,2049,2024,2041,0000
2139,2040,2044,2046,0000
2130,2061,2045,2074,0000
1896,2047,2036,2045,0000
2070,2035,2027,2023,0000
2193,2072,2059,2072,0000
1936,2069,2038,2048,0000
2010,2040,2034,2031,0000
2217,2053,1992,1997,0000
1993,2057,2094,2095,0000
1958,2078,2052,2063,0000
2195,2057,2014,2021,0000
2058,2054,2042,2044,0000
1931,2069,2049,2062,0000
2187,2102,2067,2099,0000
2151,2066,2047,2042,0000
1920,2058,2064,2067,0000
2069,2050,2032,2055,0000
2196,2059,2043,2069,0000
1933,2049,2025,2045,0000
1991,2046,2022,2009,0000
2211,2072,2083,2086,0000
2009,2060,2033,2070,0000
1939,2061,2059,2058,0000
2180,2055,2021,2022,0000
2089,2069,2048,2077,0000
1893,2050,2020,2005,0000
2133,2073,2070,2112,0000
2180,2064,2003,2021,0000
1925,2070,2086,2083,0000
2028,2033,2019,2014,0000
2205,2062,2061,2050,0000
1948,2055,2065,2078,0000
2009,2099,2054,2072,0000
2211,2060,2057,2057,0000
2015,2036,2021,2039,0000
1934,2068,2040,2045,0000
2185,2078,2066,2084,0000
2122,2072,2046,2047,0000
1884,2034,2030,2049,0000
2123,2077,2052,2060,0000
2161,2052,2041,2040,0000
1915,2046,1965,1963,0000
2032,2051,2101,2145,0000
2205,2064,2041,2047,0000
1969,2072,2071,2095,0000
1954,2053,2017,2030,0000
2186,2043,2031,2050,0000
2024,2047,2063,2083,0000
1904,2051,2025,2035,0000
2159,2058,2042,2046,0000
2150,2076,2057,2069,0000
1901,2050,2064,2060,0000
2078,2052,2036,2045,0000
2209,2081,2068,2068,0000
1943,2074,2063,2076,0000
2021,2080,2051,2047,0000
2207,2062,2019,2022,0000
1992,2058,2073,2093,0000
1944,2056,2068,2088,0000
2188,2051,2032,2042,0000
2080,2066,2045,2056,0000
1884,2031,2009,2031,0000
2140,2053,2031,2076,0000
2143,2067,2054,2055,0000
1908,2048,2049,2045,0000
2054,2049,2044,2053,0000
2187,2073,2035,2036,0000
1936,2062,2060,2079,0000
2030,2089,2057,2060,0000
2224,2069,2045,2056,0000
2041,2087,2065,2067,0000
1946,2063,2039,2025,0000
2189,2054,2078,2103,0000
2080,2041,2024,2027,0000
1915,2063,1971,2031,0000
2122,2058,2019,2036,0000
2145,2061,2039,2045,0000
1893,2031,2044,2036,0000
2082,2091,2089,2106,0000
2206,2073,2056,2086,0000
1963,2049,2035,2048,0000
1945,2026,2022,2020,0000
2185,2060,2042,2048,0000
2046,2071,2061,2078,0000
1936,2059,2039,2053,0000
2161,2052,2043,2056,0000
2107,2060,2045,2061,0000
1894,2046,2030,2039,0000
2089,2053,2037,2042,0000
2199,2081,2073,2084,0000
1920,2049,2029,2024,0000
2031,2062,2050,2064,0000
2201,2049,2044,2047,0000
1991,2062,2027,2036,0000
1949,2049,2061,2061,0000
2201,2071,1989,2047,0000
2074,2080,2067,2085,0000
1920,2063,2035,2048,0000
2153,2063,2048,2047,0000
2118,2059,2064,2066,0000
1955,2094,2070,2076,0000
2076,2051,2031,2044,0000
2154,2036,2019,2027,0000
1960,2073,2098,2116,0000
2002,2053,2030,2043,0000
2198,2065,2037,2056,0000
2004,2069,2045,2065,0000
1943,2039,2027,2018,0000
2186,2065,2093,2090,0000
2084,2072,2051,2063,0000
1883,2025,2014,2036,0000
2132,2051,2022,1993,0000
2137,2069,2152,2163,0000
1911,2056,2031,2040,0000
2064,2064,2040,2083,0000
2147,2018,1996,1999,0000
1980,2087,2069,2067,0000
1988,2062,2052,2060,0000
2196,2048,2059,2079,0000
2013,2045,2027,2028,0000
1923,2041,2023,2001,0000
2194,2081,2100,2132,0000
2105,2080,2036,2064,0000
1909,2060,2028,2062,0000
2114,2050,2033,2045,0000
2170,2070,2055,2057,0000
1933,2061,2057,2056,0000
2032,2039,2032,2029,0000
2214,2071,2046,2061,0000
1971,2061,2055,2081,0000
1969,2059,2047,2068,0000
2172,2033,2023,2006,0000
2055,2074,2025,2039,0000
1891,2051,2062,2096,0000
2187,2075,2069,2092,0000
2101,2033,1993,1994,0000
1909,2055,2033,2064,0000
2100,2064,2033,2066,0000
2190,2073,2054,2079,0000
1876,2020,1999,2009,0000
2053,2081,2064,2060,0000
2217,2075,2056,2063,0000
1996,2065,2048,2053,0000
1976,2070,2058,2060,0000
2186,2059,2048,2055,0000
2076,2079,2060,2070,0000
1916,2049,2038,2047,0000
2155,2062,2046,2055,0000
2127,2060,2045,2061,0000
1932,2077,2053,2058,0000
2089,2060,2021,2030,0000
2173,2044,2062,2067,0000
1964,2072,2072,2045,0000
2023,2073,2058,2095,0000
2210,2072,2057,2072,0000
2008,2047,2031,2052,0000
1918,2023,2029,2036,0000
2191,2063,2052,2064,0000
2102,2092,2073,2093,0000
1918,2059,2042,2059,0000
2117,2017,2009,2009,0000
2164,2071,2048,2072,0000
1909,2069,2036,2053,0000
2082,2064,2056,2067,0000
2198,2046,2026,2034,0000
1930,2052,2037,2033,0000
1989,2065,2067,2082,0000
2224,2058,2042,2047,0001
2021,2056,2037,2048,0001
1935,2068,2031,2074,0001
2186,2066,2063,2096,0001
2096,2059,2030,2050,0001
1917,2073,2043,2054,0002
2133,2076,2061,2065,0002
2156,2059,2016,2043,0002
1905,2073,2051,2061,0003
2055,2060,2031,2053,0003
2207,2066,2048,2057,0004
1953,2046,2037,2043,0004
1967,2053,2041,2042,0005
2202,2060,2040,2053,0005
2040,2068,2053,2063,0006
1925,2063,2049,2060,0006
2157,2049,2034,2053,0006
2114,2067,2045,2057,0007
1886,2043,2037,2048,0007
2137,2082,2065,2078,0007
2171,2048,2046,2054,0007
1926,2060,2049,2056,0008
2019,2048,2035,2046,0008
2201,2060,2054,2070,0008
1973,2056,2035,2043,0009
1944,2050,2037,2052,0010
2209,2063,2041,2054,0010
2035,2041,2029,2037,0011
1927,2083,2055,2061,0012
2150,2053,2048,2059,0013
2151,2068,2048,2060,0014
1905,2049,2048,2063,0015
2084,2062,2050,2066,0016
2189,2065,2045,2062,0017
1946,2063,2042,2061,0019
1997,2043,2034,2046,0020
2199,2057,2038,2054,0022
2003,2057,2045,2054,0023
1909,2042,2015,2026,0025
2220,2083,2057,2065,0027
2075,2061,2048,2056,0029
1903,2055,2034,2047,0030
2139,2061,2043,2054,0032
2111,2027,2025,2041,0034
1907,2065,2042,2053,0036
2063,2052,2039,2055,0038
2208,2072,2057,2060,0040
1947,2057,2047,2053,0042
1974,2047,2042,2046,0044
2185,2050,2028,2036,0047
2012,2053,2037,2045,0048
1912,2033,2021,2033,0051
2153,2038,2027,2041,0052
2051,2025,2009,2024,0054
1879,2035,2019,2028,0056
2103,2050,2034,2053,0058
2146,2045,2032,2043,0060
1920,2057,2046,2056,0062
2056,2068,2053,2064,0063
2224,2082,2067,2075,0065
1970,2054,2048,2059,0066
2001,2095,2061,2075,0067
2224,2082,2054,2071,0068
2060,2081,2064,2073,0070
1936,2062,2057,2061,0070
2179,2067,2058,2061,0071
2109,2048,2038,2045,0072
1855,2012,1995,2012,0072
2054,2008,2015,2012,0073
2123,2012,2002,2008,0073
1924,2059,2032,2043,0073
1982,2021,2012,2027,0073
2203,2056,2031,2045,0073
1946,2027,2012,2024,0073
1900,2011,1992,2009,0073
2148,2007,1992,2004,0073
2019,2029,2002,2018,0073
1910,2062,2039,2053,0073
2169,2077,2063,2073,0073
2183,2103,2095,2102,0073
1942,2081,2092,2101,0073
2144,2125,2116,2129,0073
2265,2136,2127,2132,0073
2016,2130,2114,2120,0073
2085,2138,2120,2128,0073
2263,2123,2104,2113,0073
2048,2119,2091,2120,0073
1994,2100,2092,2109,0073
2233,2108,2082,2105,0074
2132,2117,2092,2110,0074
1948,2094,2096,2091,0074
2162,2088,2070,2085,0075
2169,2087,2073,2082,0076
1927,2073,2067,2069,0076
2085,2083,2076,2069,0077
2205,2072,2069,2069,0078
1965,2075,2057,2063,0079
1998,2073,2058,2070,0080
2231,2085,2071,2077,0080
2035,2074,2060,2077,0081
1912,2062,2035,2056,0082
2205,2082,2061,2073,0083
2094,2065,2045,2063,0083
1911,2068,2050,2060,0084
2110,2051,2038,2056,0084
2163,2062,2039,2055,0085
1918,2065,2056,2065,0085
2041,2055,2047,2055,0085
2217,2072,2052,2070,0086
1965,2048,2031,2048,0086
1963,2048,2032,2043,0086
2187,2047,2027,2036,0086
2005,2025,2008,2015,0086
1856,1991,1975,1989,0086
2093,1991,1967,1978,0086
2021,1977,1954,1967,0086
1807,1968,1951,1965,0086
2015,1976,1953,1964,0086
2087,1966,1956,1974,0086
1848,1992,1969,1986,0086
1958,1998,1986,2002,0086
2187,2040,2020,2036,0086
1956,2038,2028,2041,0085
1945,2053,2039,2059,0085
2204,2080,2046,2057,0085
2075,2071,2061,2075,0085
1916,2065,2040,2055,0085
2159,2060,2048,2060,0085
2102,2035,2023,2032,0084
1877,2034,2020,2026,0084
2061,2047,2023,2028,0084
2162,2038,2029,2035,0084
1923,2048,2034,2040,0084
1979,2044,2038,2045,0084
2226,2070,2066,2076,0083
2039,2097,2081,2093,0083
1978,2092,2085,2098,0083
2240,2110,2105,2109,0083
2121,2106,2095,2102,0083
1949,2103,2091,2099,0083
2173,2097,2085,2095,0083
2202,2113,2093,2102,0083
1947,2102,2087,2090,0083
2103,2100,2082,2093,0083
2280,2123,2108,2116,0083
1993,2097,2087,2095,0083
2017,2096,2080,2094,0083
2276,2121,2100,2104,0083
2081,2127,2105,2120,0083
2009,2131,2115,2122,0083
2266,2141,2122,2130,0083
2189,2155,2133,2138,0083
1983,2134,2119,2130,0083
2182,2104,2098,2104,0084
2198,2092,2071,2079,0084
1914,2060,2041,2055,0084
2014,2048,2021,2030,0084
2182,2041,2022,2028,0084
1910,2010,1983,1997,0084
1905,2012,1985,1989,0084
2149,2013,1973,1996,0084
1963,1991,1952,1983,0084
1852,1982,1945,1973,0084
2106,1998,1962,1994,0085
2074,2017,1997,2022,0085
1855,2016,2018,2026,0085
2097,2053,2058,2045,0085
2160,2038,2045,2041,0085
1935,2074,2066,2066,0085
2036,2065,2059,2071,0086
2223,2074,2070,2083,0086
2008,2094,2077,2083,0086
2002,2105,2083,2098,0086
2255,2100,2091,2107,0087
2123,2125,2107,2120,0087
1947,2113,2103,2111,0087
2195,2092,2078,2096,0087
2138,2061,2046,2061,0088
1897,2063,2033,2049,0088
2082,2064,2034,2051,0088
2193,2066,2029,2048,0088
1920,2043,2014,2031,0088
1977,2044,2021,2032,0089
2205,2051,2025,2039,0089
1917,1984,1971,1977,0089
1821,1945,1931,1941,0089
2061,1924,1912,1937,0090
1972,1957,1921,1953,0090
1805,1975,1938,1977,0090
2077,1997,1962,1989,0090
2085,1994,1992,1995,0090
1824,1985,2010,1994,0091
2023,2017,2032,2015,0091
2184,2035,2030,2030,0091
1933,2049,2033,2034,0091
1948,2031,2028,2047,0091
2213,2054,2041,2051,0092
2015,2059,2040,2053,0092
1926,2054,2033,2062,0092
2203,2078,2046,2076,0092
2177,2116,2073,2093,0092
1911,2075,2029,2066,0092
2138,2079,2039,2079,0092
2206,2080,2067,2089,0092
1911,2051,2063,2063,0093
2052,2076,2091,2083,0093
2247,2083,2123,2103,0093
1983,2084,2116,2088,0093
1976,2072,2106,2083,0094
2237,2087,2074,2079,0094
2072,2092,2045,2080,0095
1936,2081,2023,2061,0096
2200,2080,2024,2067,0096
2134,2080,2005,2055,0097
1912,2077,2008,2068,0098
2109,2061,2054,2065,0099
2203,2081,2129,2081,0100
1917,2068,2143,2081,0101
2028,2072,2079,2060,0102
2242,2074,2050,2073,0102
1989,2066,2017,2059,0103
1963,2077,2063,2081,0104
2220,2071,2030,2052,0105
2067,2065,2076,2069,0106
1916,2074,2088,2064,0107
2150,2060,2079,2066,0108
2135,2065,2047,2058,0110
1894,2064,2015,2048,0111
2101,2062,2020,2070,0112
2204,2068,1996,2068,0114
1921,2051,1933,2053,0115
2024,2065,2055,2081,0117
2221,2066,2155,2088,0119
2031,2085,2219,2089,0121
1942,2051,2097,2043,0123
2195,2057,2042,2039,0125
2077,2066,2054,2047,0128
1888,2052,2049,2064,0130
2141,2056,2017,2037,0133
2164,2070,2009,2052,0136
1890,2056,2011,2046,0139
2032,2035,1982,2027,0142
2202,2063,1963,2038,0145
1949,2063,1950,2037,0148
1975,2067,2004,2056,0151
2216,2054,2068,2067,0155
2045,2079,2084,2061,0158
1912,2057,2041,2037,0162
2193,2074,2037,2034,0165
2117,2070,2121,2103,0168
1886,2055,2050,2042,0172
2115,2058,2065,2074,0175
2170,2060,2020,2059,0179
1907,2053,2050,2059,0182
2026,2055,2112,2086,0186
2214,2064,2054,2041,0190
1975,2052,2001,2049,0193
1956,2052,1994,2037,0197
2221,2061,2024,2062,0200
2036,2062,2103,2075,0204
1881,2045,2053,2052,0208
2192,2063,2048,2040,0212
2121,2056,2098,2072,0216
1913,2060,2051,2036,0220
2102,2054,1999,2042,0224
2176,2053,1941,2040,0228
1905,2052,2080,2070,0232
2021,2058,2172,2089,0237
2230,2071,2099,2064,0241
1998,2073,2000,2038,0245
1958,2071,1891,2039,0250
2224,2063,1972,2047,0255
2059,2054,1982,2033,0259
1881,2041,2030,2041,0264
2153,2056,2058,2027,0269
2139,2061,2130,2093,0274
1895,2068,2179,2093,0279
2091,2073,2176,2106,0284
2224,2085,2121,2098,0290
1940,2064,2065,2054,0295
1997,2064,2062,2071,0301
2253,2082,2031,2096,0306
2023,2087,2001,2069,0312
1962,2074,1950,2051,0318
2213,2061,1892,2016,0324
2069,2055,1940,2025,0330
1871,2043,1993,2039,0336
2123,2044,2174,2102,0342
2140,2042,2144,2062,0348
1877,2040,2059,2024,0354
2043,2041,1970,1991,0360
2208,2048,1975,2051,0367
1946,2049,2016,2046,0373
1966,2049,2086,2063,0380
2217,2065,2038,2036,0386
2030,2067,2064,2079,0393
1909,2053,2084,2064,0400
2189,2067,2083,2093,0407
2098,2064,2005,2052,0414
1886,2051,1971,2064,0420
2133,2064,2082,2079,0428
2184,2077,2278,2103,0435
1911,2080,2178,2080,0442
2032,2065,1950,2018,0449
2241,2081,1905,2033,0456
1999,2071,1980,2044,0464
1983,2075,1983,2019,0471
2234,2073,1903,2033,0479
2062,2074,2015,2085,0486
1892,2059,2178,2108,0494
2169,2061,2265,2105,0501
2136,2073,2152,2062,0509
1882,2071,1985,2011,0516
2092,2056,1989,2030,0524
2199,2050,2049,2073,0532
1914,2038,1932,2015,0539
2004,2042,1874,2038,0547
2239,2070,1903,2048,0554
1989,2068,2156,2118,0561
1945,2069,2315,2132,0569
2219,2076,2126,2060,0576
2089,2073,1902,2018,0583
1880,2052,1919,2015,0591
2162,2057,2155,2066,0598
2128,2051,2306,2108,0606
1873,2047,2037,1998,0613
2082,2047,1899,2029,0621
2181,2051,1943,2035,0628
1929,2058,1972,2058,0636
2019,2066,1881,2023,0644
2253,2064,1944,2053,0652
2018,2070,2140,2092,0659
1937,2060,2254,2076,0667
2231,2063,2150,2100,0675
2176,2065,2006,2047,0682
1901,2053,2178,2084,0690
2130,2055,2060,2049,0698
2103,2058,1941,2015,0706
1839,2053,2042,2032,0714
2014,2057,2173,2080,0723
2185,2066,2129,2075,0731
1888,2060,1905,2042,0739
1956,2059,1837,2036,0747
2226,2079,1994,2086,0756
2019,2069,2003,2028,0764
1910,2056,2011,2039,0773
2183,2062,2137,2064,0781
2106,2063,2155,2075,0789
1888,2056,2145,2049,0798
2103,2068,2053,2084,0807
2199,2077,1863,2049,0815
1911,2063,1890,2013,0824
2043,2059,2002,2052,0832
2243,2077,2074,2080,0840
1951,2059,1948,2025,0849
1953,2058,2048,2049,0857
2239,2073,2249,2057,0866
2067,2076,2241,2083,0874
1900,2054,1892,2014,0883
2205,2061,1758,2014,0891
2139,2068,2055,2102,0900
1892,2084,2387,2149,0908
2091,2065,2363,2112,0917
2190,2064,2164,2059,0926
1856,2040,1850,1980,0934
2005,2028,1797,1957,0943
2247,2048,2012,2055,0952
1998,2059,1968,2047,0961
1944,2056,2014,2071,0970
2195,2054,1967,2056,0978
2043,2062,2113,2119,0987
1881,2069,2076,2088,0996
2169,2067,1929,2033,1005
2162,2072,2060,2030,1013
1874,2065,2136,2024,1022
2085,2057,1906,2012,1030
2243,2042,1876,2014,1038
1933,2010,2056,2073,1047
1996,2023,2337,2103,1055
2242,2038,2217,2071,1062
2012,2065,1804,2006,1070
1931,2059,1906,2067,1078
2228,2099,2227,2095,1086
2105,2106,2413,2188,1094
1929,2094,1971,2009,1101
2169,2070,1635,1943,1109
2193,2077,1937,2026,1117
1868,2067,2253,2090,1125
2047,2057,2417,2125,1132
2218,2060,1978,2014,1140
1934,2043,1817,2007,1148
1970,2053,2024,2040,1155
2229,2060,2202,2114,1163
2007,2042,1906,1970,1170
1887,2030,1857,2031,1178
2182,2061,1986,2033,1185
2114,2057,2111,2079,1193
1869,2057,2208,2096,1200
2150,2070,2005,2056,1207
2187,2063,1682,1962,1214
1879,2069,1940,2106,1220
2037,2064,2385,2101,1227
2254,2091,2413,2134,1234
1975,2057,2031,2037,1240
1932,2043,1743,1952,1247
2270,2103,2113,2097,1253
2085,2108,2480,2185,1260
1924,2089,2054,2094,1266
2161,2035,1622,1979,1273
2105,2041,2045,2037,1279
1858,2060,2425,2098,1285
2083,2061,2153,2054,1292
2164,2021,1483,1905,1298
1898,2054,1959,2047,1304
1978,2058,2364,2140,1310
2241,2075,2313,2122,1316
1991,2063,1704,1988,1322
1933,2045,1854,1973,1328
2228,2068,2169,2075,1333
2035,2044,1992,2010,1339
1859,2033,1979,1950,1344
2160,2045,1987,2068,1350
2160,2071,2247,2142,1355
1926,2101,2027,2071,1361
2182,2147,1889,2075,1366
2402,2244,2486,2277,1371
1973,2130,2248,2126,1376
1971,2034,2306,2095,1381
2135,1950,1980,1979,1386
1860,1920,1895,1945,1391
1803,1968,1947,1961,1396
2143,1967,1896,1930,1400
2034,1992,1867,1961,1405
1831,2034,1625,1936,1409
2093,1999,1893,2080,1413
2219,2071,2353,2156,1417
1851,2053,2216,2068,1421
2019,2029,2028,2054,1424
2273,2053,2056,2007,1428
1921,2042,2146,2078,1431
1964,2086,1960,1968,1435
2287,2067,1785,1953,1438
2031,2090,2227,2164,1440
1946,2129,2521,2278,1443
2264,2128,2370,2196,1446
2123,2054,1787,1984,1448
1837,2031,1805,1984,1451
2165,2084,2092,2080,1453
2237,2100,2101,2070,1455
1902,2102,2070,2055,1457
2051,2048,2034,2055,1458
2206,2006,1981,2032,1460
1881,2029,1983,2020,1461
1927,2037,1925,2009,1462
2225,2044,1868,1977,1463
1995,2027,2058,2062,1463
1843,2056,2203,2113,1463
2197,2053,2134,2081,1464
2145,2064,1914,2031,1464
1861,2056,2033,2074,1463
2093,2069,2222,2070,1463
2222,2081,2199,2093,1463
1878,2066,1988,2022,1463
1999,2057,1881,2029,1462
2280,2071,1831,2006,1462
2001,2085,2147,2067,1461
1934,2088,2107,2075,1461
2260,2085,2204,2103,1460
2089,2082,2034,2063,1459
1890,2080,1952,2033,1458
2178,2086,2078,2095,1456
2165,2071,2057,2072,1455
1877,2077,2019,2067,1454
2104,2069,1995,2065,1452
2280,2070,1969,2043,1450
1947,2074,1991,2049,1448
2002,2077,2043,2069,1445
2305,2106,2144,2126,1443
2053,2116,2069,2092,1440
1926,2051,2007,2016,1436
2255,2082,2121,2119,1433
2057,2046,2211,2087,1429
1845,2060,2112,2055,1426
2188,2069,2000,2059,1422
2182,2051,1955,2021,1418
1897,2085,2145,2091,1414
2031,2067,2142,2068,1411
2207,2045,2016,2025,1407
1917,2022,1933,2005,1404
1931,2022,1984,2015,1400
2195,2024,1983,2015,1397
1999,2040,1984,2037,1393
1849,2031,2002,2023,1389
2182,2041,1963,2028,1385
2103,2052,1998,2042,1381
1871,2043,2000,2027,1376
2096,2044,2008,2042,1371
2174,2069,2055,2095,1366
1897,2058,2047,2068,1360
2012,2053,2010,2039,1353
2221,2064,2174,2067,1347
1940,2047,2106,2044,1340
1940,2066,2125,2076,1334
2223,2067,2067,2069,1327
2030,2052,2021,2045,1320
1896,2049,2054,2040,1313
2180,2068,2032,2045,1306
2137,2057,1973,2030,1298
1894,2050,1999,2027,1291
2110,2068,2058,2061,1283
2239,2084,2134,2118,1276
1921,2063,2036,2070,1268
2047,2065,2014,2070,1260
2216,2060,1998,2033,1251
1989,2084,2057,2076,1243
1930,2068,2135,2081,1234
2218,2070,2119,2068,1226
2116,2096,2147,2102,1218
1851,2095,2013,2035,1209
2241,2097,2059,2095,1201
2157,2057,1989,2031,1192
1891,2057,2057,2056,1184
2066,2050,2068,2064,1176
2228,2053,2046,2054,1167
1931,2063,2052,2050,1158
1978,2044,1903,2020,1149
2227,2052,1967,2035,1140
1993,2048,2065,2050,1131
1906,2053,2166,2095,1121
2218,2055,2131,2080,1111
2092,2045,1871,2004,1101
1831,2025,1844,1962,1091
2095,2046,2108,2045,1081
2178,2048,2217,2117,1071
1848,2040,2194,2089,1061
2023,2036,2057,2047,1051
2214,2044,2016,2032,1042
1935,2059,2072,2051,1033
1939,2065,2017,2053,1025
2250,2079,1989,2060,1017
2026,2080,2043,2067,1009
1877,2059,2026,2050,1001
2216,2071,2033,2064,0993
2116,2072,2048,2069,0986
1855,2060,1958,2047,0978
2105,2048,1972,2044,0970
2160,2051,1990,2041,0962
1868,2046,2050,2004,0954
2059,2076,2128,2077,0946
2281,2089,2053,2089,0937
2005,2100,2127,2132,0928
1961,2084,2177,2107,0920
2260,2066,2146,2053,0911
2072,2064,2094,2059,0902
1893,2049,2011,2048,0893
2197,2048,2033,2040,0884
2145,2053,2056,2055,0875
1903,2057,2019,2048,0867
2093,2044,1979,2026,0858
2232,2042,1995,2046,0850
1893,2042,2000,2039,0842
1965,2033,1979,2028,0833
2211,2031,1963,2024,0825
1983,2050,1938,2037,0816
1924,2063,1980,2047,0807
2228,2064,2067,2060,0799
2090,2055,2122,2064,0789
1877,2047,2017,2037,0780
2142,2054,1997,2055,0771
2178,2059,2034,2067,0761
1876,2057,2212,2097,0751
2058,2054,2193,2074,0742
2210,2057,2119,2069,0732
1917,2059,2016,2031,0723
1993,2080,2019,2069,0714
2249,2075,2028,2069,0705
2028,2073,2021,2055,0696
1915,2063,2004,2053,0688
2191,2058,2013,2055,0679
2097,2065,2004,2053,0671
1878,2056,1999,2052,0662
2109,2045,1971,2039,0653
2177,2056,1957,2039,0645
1901,2047,2005,2045,0636
2055,2053,2081,2079,0627
2239,2039,2176,2077,0618
1949,2055,2077,2027,0608
1956,2046,1982,2044,0599
2206,2063,1990,2077,0589
2095,2061,2118,2085,0580
1880,2042,2009,2046,0571
2146,2064,2022,2064,0561
2091,2061,2052,2066,0552
1880,2062,2190,2100,0543
2081,2056,2235,2080,0534
2200,2073,2124,2064,0525
1921,2057,2009,2043,0517
2003,2055,2001,2048,0509
2228,2060,2011,2054,0501
2003,2058,1990,2044,0494
1935,2039,1991,2036,0487
2174,2027,1994,2028,0480
2068,2057,2019,2052,0474
1899,2057,2025,2056,0468
2163,2045,2033,2059,0462
2152,2063,2033,2053,0457
1879,2049,2038,2048,0451
2089,2065,2049,2064,0446
2213,2061,2039,2055,0440
1913,2048,2034,2042,0435
2011,2070,2063,2066,0429
2224,2068,2058,2064,0424
1994,2069,2058,2069,0418
1915,2069,2063,2068,0413
2185,2063,2044,2057,0407
2063,2064,2046,2052,0401
1860,2053,2038,2045,0395
2151,2071,2057,2070,0389
2186,2071,2055,2072,0383
1920,2057,2043,2053,0377
2075,2049,2051,2049,0371
2253,2079,2067,2076,0365
1973,2069,2054,2070,0358
1987,2053,2040,2055,0352
2212,2042,2026,2048,0345
2020,2050,2029,2052,0339
1926,2069,2033,2061,0332
2208,2074,2040,2067,0326
2123,2068,2044,2064,0319
1879,2048,2036,2049,0312
2104,2048,2042,2044,0306
2190,2062,2051,2054,0299
1879,2041,2031,2041,0293
2029,2057,2043,2052,0286
2231,2067,2052,2059,0280
1963,2066,2043,2055,0273
1963,2059,2050,2059,0267
2214,2052,2043,2058,0261
2066,2065,2052,2080,0254
1929,2075,2059,2075,0248
2183,2067,2062,2069,0242
2147,2070,2067,2079,0236
1876,2044,2017,2026,0230
2076,2037,2049,2050,0225
2192,2053,2029,2032,0219
1903,2040,2036,2031,0214
2099,2137,2132,2162,0209
2299,2141,2123,2154,0204
2012,2105,2112,2112,0199
1953,2059,2062,2071,0194
2228,2067,2048,2063,0190
2037,2064,2074,2088,0185
1886,2058,2021,2058,0181
2149,2029,1999,2024,0177
2095,2012,1991,2021,0173
1858,2043,2031,2039,0169
2059,2031,2040,2046,0166
2184,2023,2021,2028,0162
1905,2042,2026,2039,0159
1975,2042,2047,2045,0156
2192,2021,2013,2022,0153
1975,2033,2022,2035,0151
1919,2065,2048,2050,0148
2235,2103,2078,2081,0146
2139,2105,2088,2095,0144
1901,2064,2055,2076,0142
2144,2077,2060,2065,0140
2162,2059,2047,2053,0139
1903,2066,2045,2050,0137
2028,2044,2021,2030,0135
2205,2054,2032,2040,0133
1948,2065,2046,2051,0132
1965,2052,2037,2035,0130
2224,2067,2067,2072,0128
2032,2067,2034,2061,0127
1918,2055,2051,2079,0125
2187,2066,2048,2064,0124
2112,2066,2051,2048,0122
1893,2071,2052,2058,0121
2112,2057,2050,2063,0120
2169,2045,2017,2015,0118
1909,2054,2060,2062,0117
2020,2051,2019,2038,0116
2200,2050,2016,2014,0114
1966,2050,2034,2039,0113
1945,2047,1999,1998,0112
2215,2066,2078,2115,0110
2078,2081,2058,2080,0109
1888,2049,2044,2059,0107
2195,2087,2060,2059,0105
2144,2078,2040,2043,0104
1888,2065,2019,2041,0101
2105,2070,2057,2081,0099
2189,2062,2036,2053,0097
1917,2062,2047,2052,0094
1999,2043,2041,2046,0091
2229,2065,2058,2071,0088
1999,2072,2062,2070,0085
1939,2059,2056,2060,0082
2205,2055,2040,2049,0079
2069,2050,2027,2041,0076
1869,2056,2027,2031,0074
2165,2074,2073,2087,0071
2144,2054,1992,2011,0069
1889,2063,2078,2098,0066
2094,2082,2049,2059,0064
2231,2087,2063,2065,0063
1936,2067,2049,2069,0061
1977,2051,2032,2046,0059
2210,2050,2049,2088,0058
2002,2056,2026,2041,0056
1894,2024,2019,2038,0055
2200,2053,2019,2020,0053
2108,2072,2081,2069,0052
1889,2067,2047,2050,0050
2145,2069,2069,2081,0049
2187,2063,2045,2055,0047
1880,2057,2034,2041,0046
2045,2052,2045,2051,0045
2232,2065,2050,2064,0044
1925,2049,2030,2046,0042
1955,2048,2047,2050,0041
2248,2067,2051,2064,0040
2009,2039,2027,2035,0039
1936,2084,2052,2048,0039
2186,2058,2013,2008,0038
2111,2056,2048,2059,0037
1877,2048,2056,2065,0037
2129,2059,2032,2046,0037
2194,2069,2053,2056,0036
1889,2055,2022,2042,0036
2026,2044,2018,2038,0036
2221,2063,2038,2068,0036
1980,2080,2016,2067,0036
1965,2065,2011,2052,0036
2239,2072,2012,2058,0036
2064,2069,2048,2068,0036
1903,2063,2060,2057,0036
2175,2057,2093,2064,0036
2149,2069,2082,2065,0036
1901,2076,2044,2071,0036
2095,2070,2038,2066,0036
2220,2074,2031,2049,0036
1917,2056,2031,2038,0036
1991,2043,2071,2043,0036
2214,2051,2139,2069,0036
1979,2043,2188,2054,0037
1926,2056,2124,2038,0037
2212,2060,2002,2042,0038
2068,2057,1923,2042,0039
1900,2062,1966,2064,0040
2155,2055,2038,2075,0041
2159,2072,2077,2065,0043
1896,2061,2050,2028,0045
2080,2061,2052,2063,0047
2228,2072,2070,2090,0050
1943,2088,2130,2104,0053
1993,2067,2084,2068,0056
2223,2059,2022,2043,0059
2026,2071,1968,2045,0063
1921,2059,1977,2048,0067
2207,2066,2069,2078,0072
2098,2058,2101,2073,0076
1886,2053,2019,2034,0081
2132,2053,1976,2024,0087
2174,2058,1984,2042,0092
1885,2043,1954,2008,0097
2049,2064,2009,2045,0103
2222,2077,2036,2076,0109
1950,2063,2172,2117,0115
1964,2061,2249,2115,0121
2230,2073,2223,2080,0127
2064,2077,2125,2060,0133
1919,2063,2029,2056,0140
2195,2064,1999,2071,0146
2120,2064,1979,2055,0153
1889,2060,1968,2038,0160
2122,2061,1980,2036,0168
2209,2077,1989,2057,0175
1907,2054,1929,2004,0182
2021,2058,1952,2046,0190
2225,2059,1943,2010,0197
1968,2059,2099,2104,0204
1943,2059,2055,2050,0212
2228,2076,2116,2102,0219
2079,2080,2098,2074,0227
1900,2063,2053,2064,0234
2183,2062,2063,2042,0242
2143,2057,2155,2109,0249
1860,2043,2170,2049,0257
2071,2041,2154,2064,0264
2193,2043,1968,1981,0272
1884,2039,1900,2014,0281
2003,2050,1991,2040,0289
2223,2052,2082,2082,0297
1995,2040,1949,2025,0306
1945,2054,1826,1996,0315
2213,2062,1963,2077,0323
2072,2064,2224,2136,0332
1884,2056,2220,2103,0341
2148,2058,2105,2038,0350
2150,2068,2023,2035,0359
1892,2066,2087,2073,0368
2075,2079,2074,2079,0377
2220,2074,1989,2049,0386
1962,2079,1870,2036,0395
2005,2077,1931,2030,0405
2229,2068,2050,2088,0414
2008,2055,2191,2035,0424
1898,2040,2120,2045,0434
2127,2035,1975,2043,0443
2064,2038,1922,2009,0453
1853,2025,2024,2048,0464
2103,2055,2171,2066,0474
2208,2072,2221,2075,0484
1900,2069,2185,2098,0495
2050,2075,2039,2062,0505
2180,2066,1939,2033,0516
1952,2082,1907,2033,0527
1991,2090,2092,2057,0537
2242,2084,2095,2077,0548
2080,2072,1931,2043,0559
1928,2064,1879,2041,0570
2204,2056,1936,2025,0580
2150,2069,2197,2111,0591
1922,2060,2059,2076,0601
2129,2058,2000,2062,0611
2229,2067,1998,2074,0621
2054,2076,2140,2032,0631
2067,2064,2185,2080,0642
2236,2062,2059,2063,0652
1916,2059,2019,2043,0662
1866,2074,2107,2087,0672
2141,2086,2286,2119,0683
2045,2091,1956,2069,0693
1804,2059,1839,2015,0703
2100,2057,1862,2017,0713
2132,2063,2190,2085,0723
1884,2058,2215,2089,0733
2084,2042,1843,1998,0743
2168,2032,1802,1980,0752
1908,2034,1984,1995,0762
1982,2031,2279,2090,0771
2225,2048,2146,2053,0781
1988,2045,1965,2003,0790
1912,2048,2034,2009,0799
2199,2056,2134,2112,0808
2085,2067,2017,2085,0817
1879,2051,1897,2066,0826
2147,2074,2014,2041,0835
2184,2077,2094,2071,0844
1870,2056,2015,2021,0852
2060,2067,1999,2048,0861
2252,2078,1931,1987,0870
1933,2087,2207,2119,0878
1998,2080,2241,2115,0887
2254,2083,2230,2089,0895
2025,2064,2009,2052,0904
1912,2047,1764,1976,0912
2210,2060,1917,2038,0921
2096,2063,1952,2074,0930
1867,2045,1980,2027,0938
2156,2047,1974,2021,0947
2203,2065,2225,2159,0955
1907,2073,2326,2160,0963
2050,2069,2254,2175,0972
2287,2082,1951,2016,0980
1971,2055,1916,1987,0988
1972,2070,2083,2061,0997
2263,2094,1950,2054,1005
2024,2059,1752,1977,1014
1904,2060,1996,2019,1022
2172,2049,2302,2095,1030
2103,2045,2207,2103,1038
1819,2016,1854,1955,1047
2084,2029,1828,1995,1055
2187,2066,2142,2094,1064
1900,2071,2235,2113,1072
2047,2072,2052,2061,1080
2263,2066,1955,2023,1089
1968,2066,2100,2091,1097
1925,2061,1926,2040,1106
2218,2048,1715,1919,1114
2078,2063,2008,2007,1122
1881,2065,2300,2132,1130
2191,2069,1904,2056,1138
2144,2052,1989,2054,1145
1874,2064,2227,2152,1153
2116,2088,2385,2162,1160
2244,2090,2052,2118,1168
1935,2045,1494,1882,1175
2004,2042,2051,2017,1183
2208,2062,2591,2144,1190
2001,2097,2559,2202,1197
1924,2063,2053,2069,1204
2213,2030,1535,1901,1212
2061,2031,1828,1993,1219
1843,2050,2146,2068,1226
2168,2043,2019,2033,1232
2176,2029,1805,1942,1239
1879,2041,1900,2037,1245
2041,2065,2280,2163,1252
2233,2059,2139,2099,1258
1938,2049,1698,2035,1264
1997,2049,1863,1989,1269
2219,2055,2122,2009,1275
2041,2057,2327,2070,1281
1943,2082,2327,2097,1286
2235,2112,2105,2147,1292
2113,2111,2187,2175,1298
1859,2067,1658,1923,1303
2092,2043,1919,2037,1309
2147,2097,2454,2204,1314
1843,2094,2427,2167,1320
2036,2076,1962,2033,1325
2212,2042,1772,1979,1331
1924,2040,2037,2049,1336
1921,2048,2047,2056,1341
2189,2046,1809,1966,1346
2015,2022,1510,1911,1351
1896,2065,2229,2130,1355
2176,2082,2382,2145,1359
2131,2069,2342,2092,1363
1916,2084,2141,2075,1367
2120,2063,1832,2027,1371
2216,2066,2197,2127,1375
1925,2045,2008,2030,1378
1987,2019,1890,1984,1381
2235,2043,1983,2022,1384
1984,2060,2034,2053,1387
1909,2016,1950,2000,1390
2243,2070,2023,2040,1392
2057,2031,2123,2068,1395
1876,2045,2089,2049,1396
2182,2047,2005,2044,1398
2155,2054,1929,2029,1399
1864,2043,2023,2040,1400
2103,2078,2090,2084,1401
2210,2057,1958,2031,1401
1948,2072,2059,2114,1402
1993,2057,2072,2043,1402
2224,2057,2155,2069,1401
2003,2066,2091,2062,1401
1909,2052,2039,2017,1401
2243,2087,2127,2124,1400
2110,2078,2085,2081,1400
1885,2072,2046,2081,1399
2132,2035,1993,2020,1398
2179,2056,1955,2026,1397
1848,2051,1964,2015,1395
2045,2059,2101,2079,1394
2218,2064,2170,2078,1392
1943,2051,2142,2050,1390
1937,2056,2019,2038,1388
2243,2049,1983,2041,1386
2064,2065,2042,2059,1384
1907,2059,2030,2046,1382
2160,2062,1982,2064,1379
2151,2053,1983,2016,1376
1844,2041,2033,2052,1373
2115,2049,1931,1991,1370
2224,2071,2045,2057,1366
1878,2076,1999,2027,1362
2023,2056,2117,2089,1358
2241,2063,2000,2041,1353
1989,2093,2136,2129,1348
1976,2080,2167,2086,1343
2258,2090,2173,2095,1338
2059,2077,2132,2072,1333
1903,2064,2016,2032,1328
2182,2060,2032,2039,1323
2105,2052,2024,2033,1318
1861,2051,1983,2028,1313
2097,2059,1991,2048,1308
2237,2070,2021,2056,1303
1925,2068,2064,2069,1298
2014,2052,2017,2038,1293
2209,2046,2022,2037,1288
1915,2037,2022,2031,1282
1881,2049,2013,2041,1276
2185,2049,1980,2025,1269
2046,2055,1993,2072,1263
1865,2074,2087,2086,1256
2151,2079,2185,2122,1248
2161,2082,2144,2071,1241
1892,2074,2100,2080,1233
2087,2066,2057,2052,1225
2208,2056,1994,2042,1218
1928,2048,2043,2055,1211
1993,2063,2029,2048,1203
2254,2061,2054,2042,1196
2018,2049,2036,2040,1189
1906,2034,2006,2029,1182
2211,2042,1966,2034,1175
2091,2047,1945,2038,1168
1925,2059,2019,2070,1160
2208,2066,2077,2082,1153
2243,2084,2066,2067,1145
1904,2062,1975,2034,1138
2111,2092,2110,2100,1130
2255,2074,2161,2099,1121
1953,2071,2148,2082,1113
1951,2035,1967,1994,1104
2241,2080,2057,2056,1096
1981,2054,2162,2111,1087
1878,2046,2152,2073,1078
2167,2038,2032,2037,1070
2075,2043,1986,2024,1061
1830,2033,2000,2020,1053
2103,2037,1974,2013,1045
2151,2051,1986,2035,1037
1857,2041,2016,2037,1029
2022,2048,2052,2046,1021
2230,2057,2015,2049,1014
1957,2052,2001,2033,1006
1949,2079,2038,2068,0998
2212,2067,2028,2056,0990
2039,2070,2050,2069,0982
1905,2072,2103,2078,0973
2176,2059,2097,2057,0965
2155,2083,2117,2080,0956
1897,2074,2072,2065,0947
2128,2094,2099,2112,0938
2280,2108,2141,2136,0928
1955,2092,2114,2111,0919
2040,2082,2005,2057,0910
2276,2083,2035,2076,0900
2009,2068,2039,2066,0891
1936,2055,2038,2045,0881
2248,2060,2036,2049,0872
2043,2057,2009,2028,0863
1860,2047,1977,2030,0853
2133,2038,1937,2023,0844
2138,2037,1925,2020,0835
1853,2016,1942,1994,0825
2065,2040,2039,2031,0816
2210,2036,2079,2026,0806
1909,2032,2057,2043,0796
1982,2049,2087,2046,0786
2234,2057,2077,2085,0777
2002,2058,2096,2058,0767
1886,2048,2095,2063,0757
2208,2052,2093,2060,0748
2097,2069,2108,2067,0739
1892,2079,2039,2060,0730
2178,2072,2007,2063,0722
2186,2064,2007,2058,0714
1877,2056,2001,2048,0706
2020,2047,1988,2033,0698
2222,2060,1997,2047,0690
1943,2050,2028,2041,0683
1961,2060,1981,2033,0675
2225,2051,2018,2041,0668
2012,2047,1939,2035,0660
1879,2053,1958,2040,0652
2186,2065,2003,2066,0644
2112,2051,2083,2048,0636
1880,2051,2202,2081,0628
2088,2037,2156,2064,0620
2179,2062,2136,2078,0612
1927,2071,2083,2075,0604
2030,2054,2039,2052,0596
2243,2078,2040,2066,0588
1970,2076,2031,2065,0580
1935,2075,2071,2064,0572
2194,2062,2021,2065,0565
2032,2051,1996,2053,0557
1900,2052,2025,2051,0550
2143,2036,2022,2032,0542
2145,2063,2045,2056,0535
1881,2066,2018,2059,0527
2093,2061,2021,2061,0520
2245,2077,2039,2073,0512
1932,2045,1992,2049,0504
2024,2079,1986,2079,0497
2269,2079,2043,2075,0489
2000,2056,2094,2057,0482
1953,2069,2152,2076,0474
2198,2040,2111,2032,0466
2079,2053,2052,2044,0459
1890,2058,2080,2057,0451
2146,2056,2062,2066,0444
2156,2062,2086,2078,0437
1858,2049,2033,2050,0430
2020,2048,2006,2040,0423
2158,2054,2024,2048,0417
1890,2057,2025,2045,0410
1967,2069,2018,2051,0404
2228,2056,2020,2050,0399
2037,2060,2032,2072,0393
1919,2044,2027,2050,0387
2261,2099,2065,2086,0382
2127,2067,2047,2069,0377
1909,2044,2024,2050,0372
2147,2050,2008,2036,0367
2200,2046,2036,2066,0362
1945,2073,2047,2064,0358
2035,2046,2040,2051,0353
2272,2132,2142,2151,0348
1906,2018,1976,1986,0344
1958,2064,2047,2049,0340
2212,2059,2064,2066,0335
2048,2072,2090,2080,0331
1909,2062,2080,2076,0327
2187,2068,2071,2061,0323
2126,2062,2057,2057,0318
1897,2078,2042,2056,0314
2112,2061,2036,2058,0310
2206,2074,2050,2064,0306
1913,2055,2031,2052,0302
2027,2048,2028,2036,0299
2220,2048,2031,2040,0295
1975,2063,2051,2075,0291
1970,2088,2033,2041,0288
2218,2065,2054,2072,0284
2073,2083,2049,2073,0281
1901,2064,2049,2068,0277
2159,2063,2035,2054,0274
2130,2058,2034,2045,0270
1875,2048,2043,2049,0267
2057,2027,2025,2033,0264
2212,2063,2063,2071,0260
1931,2062,2048,2055,0257
2003,2079,2059,2069,0254
2220,2055,2043,2054,0251
1997,2055,2034,2049,0248
1928,2057,2048,2061,0245
2207,2068,2050,2063,0242
2095,2064,2048,2060,0239
1869,2036,2016,2040,0237
2168,2081,2054,2069,0234
2147,2050,2036,2041,0232
1906,2063,2061,2067,0230
2051,2047,2033,2041,0228
2220,2080,2056,2060,0226
1942,2059,2041,2027,0224
1979,2061,2056,2053,0222
2204,2049,2015,2022,0220
2027,2068,2079,2108,0219
1910,2055,2016,2036,0217
2169,2049,2031,2058,0216
2106,2056,2016,2027,0214
1891,2064,2074,2091,0213
2099,2049,2002,2019,0211
2184,2067,2054,2065,0210
1901,2046,2033,2047,0208
2050,2069,2046,2057,0206
2229,2083,2068,2075,0204
1977,2080,2046,2056,0202
1967,2061,2049,2056,0200
2204,2057,2050,2060,0197
2039,2053,2045,2042,0195
1901,2046,2031,2012,0192
2168,2052,2057,2065,0189
2098,2041,2037,2066,0186
1891,2055,2018,2051,0183
2087,2041,1999,2025,0180
2166,2044,2026,2038,0177
1915,2057,2050,2064,0174
2032,2077,2064,2065,0171
2244,2079,2064,2075,0168
2052,2122,2103,2102,0164
1998,2121,2119,2119,0161
2325,2177,2152,2162,0158
2149,2124,2124,2129,0155
1932,2105,2085,2080,0152
2147,2060,2048,2021,0149
2119,2027,2004,2044,0146
1829,1998,2001,2031,0143
2005,1996,1943,1975,0140
2148,1999,2015,2002,0137
1875,1999,1957,1973,0135
1967,2041,2025,2047,0132
2189,2022,1996,2032,0129
1961,2025,1989,2006,0126
1894,2031,2033,2047,0123
2166,2043,2004,2026,0120
2086,2069,2051,2077,0117
1959,2115,2100,2111,0114
2182,2105,2098,2095,0111
2174,2063,2067,2079,0108
1906,2065,2047,2050,0105
2037,2039,2044,2046,0102
2213,2069,2065,2066,0099
1960,2072,2063,2062,0096
1980,2052,2041,2039,0093
2208,2052,2029,2041,0091
2032,2068,2052,2063,0089
1883,2019,2006,2016,0087
2159,2037,2039,2042,0085
2075,2033,2026,2032,0083
1856,2026,2007,2021,0081
2080,2011,1998,2009,0080
2139,2020,2012,2019,0079
1892,2041,2026,2039,0078
2025,2048,2028,2047,0077
2223,2055,2030,2051,0076
1973,2059,2025,2063,0076
1961,2055,2032,2064,0075
2220,2067,2039,2067,0075
2062,2074,2064,2070,0075
1897,2054,2074,2051,0075
2174,2070,2064,2056,0075
2133,2068,2043,2048,0075
1908,2075,1993,2052,0075
2085,2055,1946,2034,0075
2205,2077,1961,2055,0075
1927,2064,2034,2066,0076
2018,2061,2088,2087,0076
2222,2065,2058,2062,0076
1982,2057,1947,2043,0076
1960,2079,1975,2063,0077
2223,2077,2201,2111,0078
2085,2076,2392,2109,0078
1904,2058,2276,2057,0080
2165,2068,2120,2047,0081
2144,2080,2021,2047,0083
1891,2057,2040,2064,0085
2057,2053,2062,2075,0088
2208,2059,2015,2067,0091
1941,2060,2021,2074,0094
2001,2063,2015,2048,0098
2233,2069,2020,2064,0102
2008,2073,1970,2043,0106
1922,2061,1925,2032,0111
2208,2066,1905,2023,0116
2108,2065,1970,2065,0121
1902,2071,2075,2082,0126
2140,2071,2150,2092,0131
2181,2077,2047,2061,0136
1907,2069,2056,2077,0142
2059,2063,2097,2071,0148
2228,2092,2092,2060,0153
1946,2080,1991,2022,0159
1984,2070,2016,2027,0165
2224,2077,2182,2107,0172
2040,2090,2221,2127,0178
1954,2079,2036,2055,0185
2212,2082,1896,2062,0192
2144,2078,1995,2044,0198
1912,2080,2088,2102,0206
2138,2082,2027,2074,0213
2200,2084,2061,2121,0221
1930,2064,2162,2064,0229
2062,2085,2296,2116,0237
2231,2076,2168,2055,0245
2012,2097,2034,2078,0254
1942,2042,2014,2042,0263
2180,2027,2071,2029,0271
1994,2013,1998,1994,0280
1847,2005,1926,1989,0290
2126,2021,1794,1992,0299
2118,2036,1777,1986,0308
1846,2005,1643,1945,0318
2045,2005,1957,2015,0327
2141,2023,2245,2048,0337
1902,2060,2372,2134,0346
1999,2068,2194,2076,0355
2256,2079,1999,2068,0364
1987,2056,2030,2055,0374
1917,2064,2148,2090,0383
2211,2063,1911,2029,0393
2090,2059,1813,1999,0402
1890,2046,1974,2039,0412
2191,2088,2287,2117,0422
2186,2115,2274,2162,0431
1900,2086,2045,2079,0440
2030,2016,1914,1976,0450
2157,1981,2021,1992,0460
1957,2093,2115,2074,0469
1993,2076,1977,2058,0479
2274,2094,1938,2048,0488
2013,2052,1957,2050,0498
1900,2045,1964,2026,0508
2170,2055,1962,2038,0517
2098,2053,2147,2079,0527
1879,2049,2124,2046,0536
2114,2079,1960,2044,0546
2190,2089,1933,2037,0555
1909,2071,1992,2035,0564
2029,2068,2038,2023,0573
2202,2091,2048,2041,0583
1955,2080,2063,2087,0592
1965,2041,2104,2080,0601
2221,2028,2199,2092,0610
2016,2023,2157,2048,0620
1915,2031,2172,2081,0629
2189,2042,2187,2070,0639
2175,2051,1926,2009,0649
1953,2033,1896,1988,0659
2283,2053,1998,2046,0669
2238,2061,2082,2102,0680
1911,2061,1960,2030,0690
1929,2062,1910,2018,0700
2104,2072,1801,2044,0710
1898,2069,1962,2076,0720
1904,2071,2120,2065,0730
2155,2063,2072,2017,0740
2011,2074,2105,2052,0749
1877,2063,2177,2079,0759
2175,2081,2156,2113,0768
2146,2084,2265,2116,0778
1887,2065,2216,2086,0788
2137,2059,1902,2034,0798
2227,2056,1857,2009,0808
1918,2045,1922,2000,0817
2007,2048,2230,2085,0827
2219,2062,1984,2041,0837
1941,2043,1879,2047,0847
1939,2063,1993,2033,0856
2210,2083,2325,2139,0865
2088,2092,2112,2071,0875
1894,2074,1817,2048,0884
2153,2075,2008,2007,0893
2159,2076,2158,2075,0903
1881,2067,1930,2003,0912
2085,2060,1754,1958,0921
2234,2076,2177,2113,0930
1929,2081,2397,2102,0939
1980,2072,2080,2064,0947
2237,2071,1893,2063,0956
2040,2089,1931,2069,0965
1915,2062,1927,2060,0974
2232,2071,2043,2005,0983
2109,2064,2078,2067,0991
1892,2082,2220,2035,1000
2163,2096,2292,2170,1008
2239,2092,2077,2115,1017
1920,2066,1970,2041,1025
2069,2051,2052,2065,1034
2225,2049,2063,2095,1043
1903,2035,2176,2064,1051
1956,2027,1846,1937,1060
2241,2019,1788,1973,1068
2001,2037,2118,2020,1076
1891,2045,2297,2105,1085
2197,2059,2101,2080,1093
2100,2047,1920,2057,1101
1867,2043,1929,2041,1109
2123,2034,2053,2009,1117
2176,2044,2022,2019,1125
1864,2053,1965,2039,1133
2145,2112,2024,2171,1141
2227,2063,1855,1991,1149
1929,2043,2026,2009,1157
1949,2074,2262,2126,1164
2225,2107,2560,2228,1172
2068,2089,2214,2118,1180
1918,2041,1703,1945,1187
2156,2046,1702,1969,1195
2121,2066,2056,2067,1202
1903,2068,2256,2082,1209
2106,2060,2274,2069,1217
2203,2016,1478,1785,1224
1896,2029,1715,1948,1230
1980,2063,2459,2228,1237
2258,2086,2404,2199,1243
2005,2065,1888,2012,1250
1964,2048,1801,1967,1256
2234,2063,2192,2138,1262
2105,2090,2333,2153,1268
1893,2042,2027,2038,1274
2137,2043,1974,2000,1280
2125,2048,2149,2083,1287
1873,2074,2146,2115,1292
2019,2031,1669,1953,1298
2189,2041,1865,2020,1304
1895,2066,2210,2096,1309
1935,2043,2053,1999,1315
2191,2042,2070,2033,1320
1967,2065,2077,2090,1324
1882,2071,2081,2071,1329
2132,2051,1986,2035,1333
2098,2063,2121,2092,1338
1860,2067,2079,2087,1342
2136,2095,2324,2172,1346
2176,2068,1976,2017,1350
1905,2048,1851,1968,1353
2041,2076,1983,2048,1357
2247,2082,2101,2090,1360
1979,2074,2075,2067,1364
1985,2063,2106,2081,1366
2249,2051,1998,2031,1369
2050,2052,2000,2051,1372
1918,2050,1987,2030,1374
2233,2075,2024,2076,1375
2136,2047,1909,2053,1377
1886,2040,1909,2020,1378
2120,2051,2227,2105,1379
2200,2045,2149,2035,1380
1913,2041,2176,2062,1380
2004,2038,1991,2030,1380
2231,2051,1970,2043,1380
1950,2040,1936,1995,1380
1947,2052,2047,2109,1380
2224,2064,2140,2095,1380
2071,2095,2192,2113,1379
1880,2065,2057,2039,1379
2204,2065,1978,2057,1378
2147,2075,2087,2078,1377
1876,2076,2155,2096,1376
2105,2066,2076,2059,1374
2219,2068,2009,2052,1373
1914,2064,2030,2056,1371
2015,2064,2042,2056,1369
2222,2060,1976,2048,1367
2017,2056,1956,2041,1364
1887,2056,2104,2057,1362
2230,2076,2128,2071,1359
2115,2069,2067,2055,1355
1862,2048,1994,2034,1352
2179,2063,2063,2077,1348
2169,2068,2124,2084,1343
1927,2090,2081,2103,1338
2094,2072,1934,2021,1333
2279,2065,2026,2028,1328
1946,2069,2111,2110,1323
1995,2076,2150,2092,1317
2252,2072,2155,2118,1312
2017,2062,2094,2066,1306
1870,2050,2043,2031,1300
2182,2061,2006,2046,1295
2055,2061,1990,2039,1289
1829,2043,2033,2035,1284
2093,2049,2008,2031,1278
2140,2057,1974,2044,1273
1877,2057,2021,2044,1267
2028,2064,2061,2060,1261
2219,2071,1987,2036,1255
1916,2054,1930,2013,1249
1963,2082,2118,2127,1242
2246,2069,2097,2067,1235
2037,2072,2136,2093,1227
1921,2071,2063,2056,1219
2189,2058,2067,2076,1211
2140,2069,2209,2125,1203
1884,2048,2053,2059,1194
2124,2052,2005,2061,1186
2206,2051,2013,2057,1178
1934,2037,2070,2024,1170
2019,2037,2083,2023,1162
2249,2041,2041,2024,1155
1955,2037,1975,2024,1147
1961,2046,2004,2047,1140
2253,2070,2026,2057,1132
2088,2072,2013,2061,1124
1889,2059,2020,2056,1116
2152,2051,2005,2041,1108
2131,2055,1984,2044,1100
1878,2060,1981,2048,1092
2095,2063,2024,2067,1083
2196,2060,2045,2045,1074
1918,2070,2203,2095,1064
1984,2045,2158,2065,1055
2215,2048,2141,2066,1046
1977,2056,2011,2035,1037
1897,2058,2041,2062,1028
2177,2060,2084,2072,1019
2116,2073,2093,2090,1011
1887,2064,2021,2046,1003
2170,2068,2024,2047,0995
2178,2061,2015,2040,0988
1867,2047,1962,2029,0981
2034,2051,1975,2033,0973
2226,2056,2039,2050,0966
1944,2061,1995,2051,0959
1982,2080,1937,2054,0952
2233,2073,1976,2069,0944
2018,2072,2151,2076,0937
1898,2053,2263,2064,0929
2191,2052,2213,2057,0922
2132,2081,2116,2075,0914
1920,2085,2006,2071,0906
2171,2087,2012,2085,0897
2200,2081,2027,2065,0889
1903,2056,2027,2037,0880
2011,2049,2037,2046,0872
2212,2053,2032,2048,0863
1972,2054,2057,2062,0854
1945,2041,2033,2042,0845
2223,2038,1995,2031,0836
2023,2039,1913,2016,0826
1874,2036,1855,2006,0817
2188,2044,1934,2029,0808
2142,2056,2073,2061,0798
1887,2063,2135,2071,0789
2100,2069,2159,2079,0779
2227,2078,2105,2067,0770
1924,2061,2104,2053,0760
2005,2048,2141,2072,0751
2221,2072,2061,2068,0742
1970,2070,1990,2061,0733
1934,2064,2012,2070,0724
2204,2070,2065,2068,0716
2072,2075,2096,2067,0708
1892,2076,2052,2055,0700
2159,2071,1993,2063,0692
2190,2060,1970,2036,0684
1882,2055,1989,2038,0676
2075,2043,2043,2046,0668
2199,2040,2018,2045,0661
1869,2026,2028,2019,0653
1927,1999,2014,2031,0646
2211,2054,2046,2058,0638
1981,2048,2039,2057,0631
1909,2049,2031,2050,0623
2179,2044,2035,2037,0616
2072,2048,1967,2039,0608
1884,2054,2025,2059,0601
2163,2080,2096,2084,0593
2186,2065,2146,2065,0586
1894,2055,2114,2061,0579
2030,2057,2047,2045,0572
2194,2066,1948,2048,0565
1953,2091,1981,2061,0558
1961,2056,2009,2062,0551
2262,2080,2117,2096,0544
2051,2065,2171,2095,0537
1920,2048,2069,2052,0530
2213,2071,2023,2065,0523
2114,2057,2021,2055,0517
1902,2068,2025,2053,0510
2139,2059,2030,2056,0504
2159,2061,1942,2033,0497
1907,2044,1941,2042,0491
2064,2062,2035,2071,0485
2243,2070,2118,2074,0478
1982,2079,2131,2054,0472
1960,2053,2101,2056,0466
2220,2061,2105,2068,0459
2056,2068,2098,2072,0453
1887,2057,2024,2043,0447
2175,2066,2001,2053,0441
2092,2051,2015,2050,0436
1807,2020,2013,2024,0430
2085,2055,2064,2065,0425
2176,2063,2048,2064,0419
1885,2059,2029,2051,0414
2012,2041,2015,2043,0409
2243,2061,2029,2053,0404
2010,2072,2048,2074,0399
1992,2085,2056,2081,0394
2222,2046,2025,2048,0389
2132,2103,2074,2089,0384
1869,2025,2023,2027,0380
2224,2088,2075,2085,0375
2170,2075,2054,2073,0370
1919,2067,2047,2063,0365
2102,2067,2044,2076,0361
2198,2048,2024,2040,0356
1931,2057,2037,2054,0351
2001,2074,2052,2066,0346
2244,2079,2066,2078,0342
2003,2069,2054,2069,0337
1920,2059,2044,2056,0332
2166,2038,2031,2044,0327
2080,2060,2046,2057,0322
1883,2054,2046,2049,0317
2161,2071,2064,2064,0312
2159,2049,2038,2047,0308
1889,2044,2037,2044,0303
2056,2051,2039,2047,0298
2194,2060,2034,2041,0293
1949,2069,2052,2057,0288
1976,2044,2021,2028,0284
2209,2049,2038,2038,0279
2047,2084,2075,2099,0274
1912,2056,2032,2044,0269
2162,2035,2036,2047,0265
2121,2059,2038,2047,0260
1859,2040,2049,2069,0255
2127,2061,2034,2051,0251
2178,2053,2024,2037,0246
1923,2079,2072,2081,0242
2045,2073,2054,2078,0237
2228,2070,2054,2085,0233
1969,2050,2020,2037,0228
1939,2053,2041,2041,0224
2203,2056,2049,2049,0220
2029,2033,2026,2029,0216
1904,2057,2045,2047,0212
2151,2057,2045,2045,0208
2149,2077,2071,2078,0204
1918,2071,2037,2059,0200
2094,2070,2050,2076,0197
2256,2129,2132,2159,0194
1917,2056,2025,2036,0190
2006,2070,2035,2026,0187
2236,2061,2092,2084,0184
1988,2043,1988,2000,0181
1935,2067,2060,2086,0178
2213,2074,2022,2053,0176
2080,2050,2027,2037,0173
1874,2044,2055,2054,0170
2137,2050,2050,2057,0167
2155,2064,2039,2049,0164
1895,2059,2056,2055,0161
2074,2058,2055,2064,0158
2215,2074,2055,2069,0155
1934,2062,2048,2052,0152
1985,2046,2038,2050,0148
2244,2074,2044,2055,0145
2052,2095,2075,2084,0142
1953,2096,2077,2090,0139
2217,2071,2058,2064,0136
2066,2048,2035,2043,0133
1881,2057,2035,2038,0130
2105,2041,2031,2031,0127
2163,2059,2025,2022,0125
1878,2033,2032,2005,0122
2031,2041,2073,2107,0120
2198,2056,2030,2061,0118
1946,2060,2025,2062,0116
1971,2048,2012,2017,0114
2199,2058,2047,2048,0112
2033,2064,2022,2068,0110
1905,2047,2008,2050,0108
2196,2074,2040,2062,0106
2120,2064,2055,2057,0104
1899,2069,2064,2062,0102
2129,2068,2051,2064,0100
2177,2060,2055,2060,0097
1903,2053,2016,2048,0095
2005,2036,1999,2036,0092
2214,2055,1998,2047,0090
1962,2059,2040,2056,0087
1969,2063,2071,2062,0085
2227,2065,2107,2073,0083
2059,2068,2112,2066,0080
1893,2068,2093,2064,0079
2183,2076,2075,2071,0077
2132,2064,2011,2045,0075
1879,2048,1975,2034,0073
2093,2051,1956,2041,0072
2169,2047,2036,2070,0071
1923,2062,2075,2070,0070
1992,2039,2114,2047,0069
2201,2040,2079,2034,0068
1988,2065,2050,2035,0068
1928,2052,2001,2043,0068
2225,2075,2023,2067,0068
2049,2044,1991,2027,0068
1872,2051,2002,2038,0068
2153,2059,1986,2029,0068
2142,2058,2004,2057,0069
1885,2062,2052,2043,0069
2068,2052,2200,2069,0070
2208,2073,2229,2084,0071
1937,2078,2165,2083,0072
1999,2058,2034,2054,0074
2242,2072,1992,2050,0076
2032,2086,2042,2076,0079
1939,2065,2044,2059,0082
2213,2075,2051,2073,0085
2105,2073,2043,2063,0089
1886,2062,1971,2047,0093
2145,2070,1906,2045,0098
2175,2066,1927,2065,0102
1896,2062,2049,2059,0107
2057,2057,2100,2038,0112
2238,2073,2060,2044,0118
1949,2060,2017,2044,0123
1961,2052,2007,2034,0128
2209,2048,2052,2059,0134
2019,2063,2110,2091,0139
1908,2062,2063,2073,0145
2207,2078,2030,2085,0151
2110,2063,1969,2057,0156
1888,2061,2052,2076,0162
2138,2066,2181,2064,0168
2188,2058,2135,2038,0174
1906,2051,2094,2044,0180
2019,2060,1996,2037,0186
2223,2080,2072,2084,0192
1964,2059,1996,2059,0199
1965,2070,2045,2061,0205
2205,2061,2069,2103,0212
2080,2080,2065,2063,0219
1918,2067,2019,2052,0226
2186,2073,1997,2056,0233
2155,2073,2075,2053,0241
1888,2060,2097,2069,0248
2103,2076,2075,2071,0256
2202,2070,2091,2071,0264
1913,2058,2051,2035,0272
1984,2040,1975,2027,0280
2215,2047,1958,2028,0288
1991,2068,1917,2036,0296
1950,2062,1950,2037,0305
2207,2050,1839,2016,0313
2062,2048,2059,2075,0322
1885,2068,2266,2068,0330
2178,2087,2219,2074,0338
2156,2060,1941,2031,0347
1898,2058,1987,2064,0355
2043,2041,2287,2105,0364
2239,2106,2403,2151,0373
1974,2099,2118,2078,0382
2018,2078,1811,2029,0391
2217,2054,1841,2044,0401
1956,2024,2028,2024,0411
1878,2015,1961,1995,0420
2152,2014,1912,1980,0430
2055,2033,1942,2008,0440
1895,2046,2019,2043,0451
2110,2042,2021,2024,0460
2173,2054,2028,2024,0471
1860,2024,2120,2064,0481
2021,2048,2182,2082,0491
2222,2068,2075,2067,0501
1973,2081,1990,2041,0511
2010,2099,1941,2075,0521
2241,2087,2036,2083,0531
2048,2073,1961,2072,0541
1908,2047,1670,1935,0551
2229,2093,1923,2052,0561
2143,2081,2303,2082,0572
1914,2092,2595,2171,0582
2184,2087,2290,2095,0592
2318,2084,1937,2037,0602
1951,2062,1868,2008,0612
1977,2037,2075,2072,0623
2125,2041,1974,2044,0634
1888,2029,1867,2023,0645
1877,2034,1983,2039,0656
2176,2044,2238,2090,0667
1994,2064,2134,2066,0677
1835,2053,1870,1993,0688
2150,2061,1877,2022,0698
2113,2065,2272,2160,0709
1852,2080,2090,2088,0719
2058,2056,1832,2021,0729
2203,2059,1794,1989,0739
1929,2044,2129,2041,0749
2014,2057,2086,2071,0759
2236,2061,1974,2052,0769
1982,2058,2064,2112,0778
1943,2081,2388,2127,0788
2244,2077,2358,2096,0798
2096,2080,1914,2030,0808
1897,2046,1875,2009,0817
2174,2053,2206,2114,0827
2163,2063,2163,2085,0837
1909,2063,2054,2083,0846
2112,2057,1820,2001,0856
2206,2068,2090,2100,0865
1924,2071,1988,2036,0875
1991,2066,1906,2042,0884
2253,2081,1992,2059,0893
2033,2079,2017,2037,0902
1888,2051,2089,2081,0911
2187,2073,2074,2052,0919
2113,2077,2061,2071,0928
1881,2053,2162,2099,0936
2148,2065,2183,2022,0945
2171,2070,2099,2066,0953
1900,2065,2067,2061,0961
2079,2085,1939,2041,0969
2276,2095,2038,2081,0977
2000,2090,2000,2059,0985
1989,2078,2097,2065,0993
2263,2069,2126,2074,1001
2028,2052,2039,2124,1009
1859,2048,2021,2085,1016
2213,2071,2223,2106,1024
2137,2058,2214,2022,1031
1892,2032,2037,2027,1039
2092,2021,1857,2013,1046
2162,2024,1955,2025,1054
1888,2031,2103,2045,1061
2008,2028,1934,2029,1068
2231,2024,1753,1974,1075
1905,2024,1950,2020,1083
1904,2045,2229,2046,1089
2237,2062,2218,2113,1096
2055,2081,2133,2094,1103
1888,2064,1881,1997,1109
2162,2066,1997,2065,1116
2136,2074,2245,2147,1122
1904,2069,1967,2101,1128
2106,2059,1733,2002,1135
2217,2069,2167,2059,1141
1951,2094,2486,2135,1148
2026,2095,2528,2179,1154
2255,2061,2006,2045,1161
1973,2024,1731,1939,1167
1893,2042,2039,2054,1174
2205,2057,1875,2033,1180
2077,2053,1815,2011,1187
1868,2043,1979,1996,1193
2149,2043,2097,2053,1199
2138,2048,1816,2046,1205
1875,2031,1751,1981,1210
2089,2054,2183,2067,1216
2199,2083,2526,2168,1221
1947,2089,2286,2117,1227
1994,2057,1833,1994,1232
2224,2048,1952,2012,1237
2010,2057,2182,2097,1242
1911,2064,2213,2097,1248
2235,2067,1841,2057,1253
2143,2095,1971,2034,1258
1888,2067,2179,2080,1263
2171,2099,2301,2111,1268
2191,2075,2125,2056,1273
1875,2059,1938,2039,1278
2054,2051,1816,2016,1283
2208,2055,2016,2041,1287
1850,2016,1988,1972,1292
1947,2056,1939,2017,1296
2193,2059,1914,2025,1300
2013,2060,2109,2089,1303
1873,2036,2097,2053,1307
2173,2072,2158,2136,1310
2091,2064,1997,2062,1312
1868,2075,2093,2049,1315
2080,2048,2228,2088,1318
2196,2089,2084,2052,1320
1901,2059,1880,2063,1322
2030,2068,2042,2063,1324
2232,2055,2087,2052,1326
1954,2051,1970,1976,1328
1939,2040,2089,2023,1330
2241,2068,2102,2111,1332
2035,2065,2165,2125,1333
1907,2060,2061,2079,1335
2192,2058,1935,2010,1336
2141,2058,2029,2059,1337
1885,2060,2027,2051,1338
2106,2034,1904,1993,1339
2212,2047,1913,2008,1340
1919,2060,2047,2052,1340
2013,2066,2081,2088,1340
2248,2056,1959,2019,1340
1995,2057,2056,2047,1340
1934,2063,2161,2073,1340
2226,2070,2210,2096,1340
2067,2065,2063,2057,1340
1891,2058,2022,2075,1339
2170,2066,2135,2103,1338
2184,2087,2135,2095,1338
1873,2047,1972,2044,1337
2062,2057,1923,2032,1336
2233,2068,2079,2060,1335
1929,2059,2091,2061,1333
1989,2061,2063,2047,1332
2203,2061,2020,2043,1330
2026,2073,2036,2068,1328
1917,2049,2035,2036,1326
2216,2064,2020,2040,1324
2093,2054,1956,2027,1322
1860,2052,1925,2017,1319
2164,2055,2109,2102,1316
2208,2076,2122,2095,1313
1921,2080,2162,2111,1309
2096,2091,2111,2095,1305
2234,2080,2048,2078,1301
1954,2063,2014,2052,1297
1959,2050,2042,2061,1293
2213,2041,2061,2045,1288
1993,2057,2152,2066,1284
1841,2036,2099,2031,1279
2172,2054,2049,2046,1275
2090,2060,2005,2045,1270
1815,2052,2000,2045,1265
2106,2049,2004,2038,1260
2171,2062,1991,2041,1255
1889,2056,1996,2042,1250
2044,2061,2058,2074,1245
2229,2076,2084,2094,1239
1974,2079,2088,2092,1234
1937,2051,1932,1999,1228
2244,2052,1971,2014,1221
2048,2063,2089,2083,1215
1875,2080,2165,2125,1208
2189,2079,2060,2115,1201
2156,2080,2051,2052,1195
1884,2067,2113,2066,1188
2118,2067,2159,2076,1181
2203,2067,2092,2061,1175
1908,2051,1993,2020,1168
2039,2051,2061,2053,1162
2290,2076,2057,2054,1156
2010,2055,2016,2047,1149
1962,2047,1992,2035,1143
2227,2044,1998,2024,1137
2040,2045,1990,2031,1131
1878,2045,2015,2052,1125
2159,2047,2027,2043,1118
2136,2054,2020,2035,1111
1861,2060,2069,2061,1104
2075,2059,2045,2064,1097
2211,2077,2011,2076,1089
1924,2056,1916,1999,1081
1966,2048,2008,2022,1073
2225,2059,2208,2149,1065
1977,2061,2208,2115,1057
1915,2057,2096,2057,1049
2216,2056,2006,2012,1041
2082,2045,1985,2039,1034
1854,2041,2048,2047,1027
2138,2045,2037,2030,1020
2176,2057,2087,2059,1013
1892,2062,2041,2061,1007
2054,2068,1999,2055,1000
2280,2087,2044,2076,0994
1972,2081,2052,2074,0987
2002,2076,2015,2052,0981
2231,2062,1995,2044,0974
1994,2066,2061,2069,0967
1872,2063,2095,2081,0960
2180,2063,2085,2061,0952
2101,2055,1955,2022,0945
1851,2050,2004,2030,0937
2108,2060,2076,2080,0929
2181,2054,2112,2079,0920
1896,2049,2085,2053,0912
2030,2064,2072,2044,0904
2239,2080,2113,2071,0895
1977,2068,2008,2048,0887
1962,2060,1921,2031,0879
2246,2064,1998,2049,0870
2068,2061,2138,2085,0862
1911,2061,2160,2069,0853
2215,2067,2073,2049,0845
2160,2075,2003,2046,0837
1898,2068,2009,2052,0829
2109,2073,2051,2071,0821
2216,2068,2079,2095,0813
1928,2069,2038,2060,0804
2012,2053,1996,2031,0796
2215,2044,1949,2019,0788
1943,2047,1999,2045,0780
1901,2043,2027,2049,0772
2194,2050,2049,2063,0763
2056,2058,2066,2079,0755
1896,2050,2038,2065,0746
2170,2060,1985,2047,0737
2163,2076,1996,2040,0728
1891,2071,2123,2072,0719
2076,2060,2210,2080,0710
2210,2062,2099,2058,0701
1908,2046,1936,2019,0692
1977,2044,1970,2024,0683
2242,2057,2057,2052,0674
2006,2060,2085,2067,0666
1919,2048,2045,2065,0657
2195,2053,2046,2064,0648
2101,2054,2045,2055,0639
1886,2044,1989,2026,0630
2151,2048,1944,2035,0622
2173,2053,1995,2055,0613
1881,2051,2112,2076,0604
2052,2057,2114,2065,0596
2237,2063,2041,2063,0587
1942,2059,1948,2029,0579
1935,2069,2000,2065,0571
2183,2061,2065,2080,0562
1981,2064,2131,2064,0554
1893,2070,2133,2071,0546
2207,2070,2100,2085,0538
2122,2059,2043,2063,0530
1921,2082,2018,2075,0522
2119,2059,2012,2048,0514
2201,2069,2025,2063,0506
1922,2053,2043,2057,0499
2041,2052,2048,2052,0491
2245,2056,2064,2069,0484
1973,2054,2055,2058,0476
1966,2051,2040,2054,0469
2225,2057,2028,2048,0462
2031,2039,2012,2046,0454
1876,2040,2011,2034,0447
2187,2046,2030,2049,0440
2144,2075,2051,2067,0432
1871,2071,2019,2065,0425
2061,2061,2017,2055,0418
2154,2056,1980,2045,0411
1882,2073,2097,2076,0403
2032,2081,2157,2093,0396
2247,2079,2170,2081,0389
2013,2077,2113,2074,0382
1941,2055,2040,2043,0374
2219,2038,2009,2036,0367
2097,2057,2025,2052,0360
1951,2098,2056,2093,0353
2186,2066,2030,2061,0347
2174,2063,2031,2050,0340
1881,2042,2013,2035,0334
2069,2055,2023,2045,0327
2240,2076,2061,2081,0321
1951,2059,2042,2062,0315
1998,2059,2035,2050,0309
2212,2029,2016,2034,0303
1987,2039,2024,2033,0297
1926,2055,2052,2056,0292
2200,2059,2050,2064,0286
2093,2057,2043,2055,0281
1863,2027,2018,2032,0276
2102,2038,2023,2033,0271
2139,2040,2016,2033,0266
1894,2062,2041,2052,0261
2061,2060,2049,2049,0256
2230,2067,2072,2080,0252
1963,2071,2066,2079,0247
1973,2064,2049,2068,0243
2218,2058,2051,2059,0239
2036,2069,2061,2070,0235
1917,2063,2050,2049,0231
2178,2059,2051,2079,0227
2117,2067,2040,2060,0223
1895,2064,2054,2063,0220
2104,2057,2046,2054,0216
2174,2063,2044,2054,0213
1892,2044,2032,2038,0210
2012,2042,2039,2050,0206
2203,2050,2046,2055,0204
1949,2046,2031,2037,0201
1995,2094,2065,2068,0198
2207,2059,2054,2065,0196
2097,2120,2069,2074,0193
1913,2059,2046,2055,0191
2170,2071,2048,2054,0189
2138,2079,2048,2039,0187
1882,2052,2054,2034,0185
2086,2057,2060,2030,0184
2219,2082,2109,2130,0182
1932,2079,2030,2097,0180
2008,2069,2005,2063,0179
2239,2082,2020,2048,0177
1986,2062,2041,2048,0176
1951,2062,2068,2064,0175
2209,2070,2057,2061,0173
2080,2069,2056,2053,0172
1889,2067,2076,2071,0170
2156,2058,2054,2059,0169
2158,2068,2030,2057,0168
1880,2051,2029,2052,0166
2064,2052,2027,2046,0165
2208,2069,2045,2062,0164
1938,2079,2049,2076,0162
1991,2062,2042,2049,0160
2231,2058,2035,2033,0158
1979,2035,2044,2050,0156
1924,2050,2013,2028,0153
2215,2077,2074,2091,0151
2102,2081,2046,2062,0148
1917,2084,2029,2049,0146
2141,2064,2072,2072,0143
2153,2051,2018,2049,0141
1880,2047,2027,2041,0138
2056,2048,2023,2039,0135
2212,2056,2048,2050,0133
1941,2054,2035,2063,0130
1974,2053,2047,2058,0127
2233,2065,2039,2060,0124
2025,2065,2057,2060,0121
1883,2044,2040,2040,0118
2247,2084,2060,2063,0115
2124,2080,2063,2088,0112
1885,2068,2050,2039,0110
2141,2074,2096,2100,0107
2180,2055,2042,2053,0105
1894,2062,2037,2053,0103
2051,2076,2074,2086,0100
2239,2079,2064,2061,0098
1952,2047,2023,2044,0096
1948,2048,2050,2060,0094
2213,2051,2034,2037,0092
2037,2049,2033,2052,0090
1888,2046,2029,2062,0088
2187,2075,2045,2071,0085
2150,2077,2072,2076,0083
1878,2054,2053,2058,0081
2068,2030,2016,2035,0079
2213,2061,2053,2060,0077
1912,2067,2052,2060,0075
2006,2054,2042,2044,0073
2274,2098,2070,2083,0072
1967,2058,2046,2051,0070
1929,2064,2045,2058,0069
2242,2072,2040,2063,0068
2045,2037,2009,2040,0067
1906,2088,2044,2066,0066
2158,2053,2032,2048,0065
2160,2065,2064,2069,0064
1885,2059,2063,2052,0064
2086,2065,2062,2053,0063
2195,2047,2047,2050,0063
1929,2055,2071,2052,0063
1986,2049,2078,2057,0063
2228,2063,2077,2056,0063
1993,2059,2061,2059,0063
1919,2068,2032,2052,0063
2212,2067,2012,2072,0063
2094,2069,2003,2059,0064
1886,2060,1954,2049,0064
2148,2063,2006,2058,0064
2161,2053,1974,2041,0064
1901,2071,2031,2072,0065
2064,2061,2029,2056,0065
2232,2064,1966,2040,0066
1943,2048,2000,2031,0067
1949,2047,2078,2056,0068
2232,2059,2226,2079,0070
2013,2054,2304,2078,0071
1905,2051,2188,2056,0073
2180,2066,2080,2053,0075
2102,2068,2114,2097,0078
1898,2068,2066,2085,0080
2119,2067,2034,2066,0083
2203,2072,1967,2044,0086
1904,2058,1979,2054,0090
2033,2057,1994,2055,0094
2238,2063,1952,2033,0098
1965,2056,1947,2030,0102
1961,2062,2038,2043,0106
2217,2070,2144,2111,0111
2040,2073,2073,2084,0116
1911,2055,1960,2049,0121
2194,2057,1901,2038,0126
2128,2070,2000,2057,0131
1904,2076,2110,2083,0136
2110,2072,2106,2061,0142
2226,2094,2130,2087,0147
1949,2085,1977,2040,0153
2060,2103,2041,2120,0159
2279,2136,2153,2092,0165
1999,2090,2287,2148,0172
1968,2089,2259,2110,0178
2228,2073,2098,2092,0185
2062,2066,2076,2085,0191
1853,2033,2024,2034,0199
2105,2000,1969,2009,0206
2125,2010,1824,1937,0214
1866,2026,1928,1994,0222
2079,2035,1959,2012,0230
2183,2041,2028,2057,0238
1901,2043,2007,2048,0247
1959,2036,2026,2039,0256
2216,2048,2124,2067,0265
1989,2050,1980,2011,0274
1917,2049,2020,2027,0283
2199,2064,1964,2028,0292
2113,2083,2098,2058,0302
1887,2050,2116,2059,0312
2128,2057,2062,2061,0321
2149,2049,1969,2053,0331
1856,2031,1851,2012,0341
2035,2037,1935,2033,0351
2234,2079,2169,2086,0361
1958,2072,2182,2080,0371
1999,2079,2147,2093,0381
2254,2085,2020,2072,0391
2081,2122,2122,2104,0401
1941,2095,2185,2120,0412
2229,2074,2008,2061,0422
2088,2027,1839,1987,0433
1811,2000,1921,2024,0443
2039,1983,2124,2013,0454
2176,2034,2226,2050,0465
1896,2053,1997,2006,0475
2059,2106,1963,2068,0486
2246,2085,2079,2094,0497
1962,2069,2138,2073,0508
1953,2069,2013,2048,0519
2228,2056,1813,2000,0530
2038,2053,1945,2039,0541
1892,2072,2137,2080,0552
2199,2122,2258,2136,0562
2135,2094,1923,2031,0573
1875,2106,1855,1992,0584
2091,2047,2035,2043,0594
2185,2043,2057,2047,0604
1891,2014,2056,2053,0615
2007,2020,2237,2089,0625
2238,2067,2300,2178,0636
1979,2062,2179,2111,0647
1942,2044,1923,2053,0658
2243,2047,1960,2029,0669
2083,2057,2087,2053,0680
1943,2061,2141,2094,0691
2263,2070,1971,2031,0702
2255,2051,2010,2041,0712
1964,2062,2015,2045,0723
2077,2061,1853,2006,0734
2148,2069,1922,2079,0744
1821,2069,2217,2110,0755
1890,2074,2361,2159,0765
2180,2080,2015,2066,0775
1933,2045,1820,2024,0785
1860,2041,1893,2007,0796
2168,2050,2168,2080,0806
2082,2064,2043,2021,0816
1901,2066,2048,2063,0825
2156,2068,2207,2092,0835
2168,2080,2157,2057,0845
1879,2064,2028,2067,0855
2060,2063,1929,2053,0864
2189,2077,2051,2128,0874
1909,2067,2125,2059,0883
1971,2059,1905,1992,0892
2244,2071,1947,2027,0902
2047,2086,2138,2100,0911
1937,2083,2100,2057,0920
2219,2086,2124,2039,0930
2123,2071,2022,2045,0939
1860,2049,2125,2106,0948
2178,2069,2167,2113,0956
2208,2078,1848,2032,0965
1917,2055,1813,1998,0974
2047,2052,2010,2019,0982
2237,2077,2111,2096,0991
1959,2048,1918,1992,0999
1973,2049,1968,2013,1007
2223,2059,2352,2136,1016
2041,2075,2434,2160,1024
1900,2071,1934,2049,1032
2223,2065,1727,2065,1040
2141,2067,2056,2036,1048
1861,2064,2356,2116,1056
2092,2068,2225,2065,1064
2192,2055,1953,1983,1072
1904,2047,1952,2034,1079
2001,2045,2002,2013,1087
2181,2055,2198,2133,1095
2011,2062,1990,2057,1103
1952,2046,1707,1993,1110
2260,2060,1946,2074,1117
2072,2073,2270,2148,1125
1888,2061,2225,2134,1132
2165,2050,1936,2041,1139
2159,2045,1848,1965,1146
1892,2054,2279,2060,1153
2078,2063,2296,2079,1159
2218,2075,2053,2076,1166
1898,2021,1449,1888,1173
1982,2046,2048,2046,1180
2212,2064,2295,2169,1186
2005,2072,1981,2077,1193
1927,2049,2016,2016,1199
2220,2062,2183,2044,1205
2080,2071,2378,2119,1212
1876,2058,2216,2071,1218
2137,2029,1686,1950,1224
2164,2060,1928,2008,1231
1909,2081,2241,2173,1237
2112,2075,2070,2113,1243
2233,2057,1783,2008,1249
1974,2053,1695,1981,1255
1999,2057,2178,2120,1261
2260,2073,2218,2030,1266
2010,2057,1911,1982,1272
1881,2034,2026,1980,1277
2195,2068,2179,2160,1283
2078,2064,2227,2104,1288
1868,2073,2185,2099,1294
2112,2057,1804,2044,1299
2152,2078,2039,2085,1305
1838,2050,2271,2101,1311
1998,2060,2113,2034,1316
2205,2065,2154,2009,1322
1916,2064,2004,2035,1328
1941,2069,2056,2090,1333
2196,2045,1831,2000,1339
1985,2042,1776,2001,1344
1888,2041,1897,2026,1349
2189,2068,2185,2127,1354
2128,2080,2196,2070,1359
1873,2021,1557,1905,1364
2103,2034,1898,2089,1368
2217,2080,2453,2170,1372
1912,2068,2294,2094,1376
1995,2031,2045,2022,1380
2260,2041,1860,2018,1384
1971,2063,2180,2088,1388
1951,2069,2312,2102,1392
2249,2043,1848,1977,1395
2083,2049,1803,1988,1399
1878,2056,2065,2050,1402
2210,2049,2137,2081,1405
2163,2048,1955,2066,1408
1883,2059,1853,2032,1411
2061,2046,2039,2029,1413
2207,2076,2046,2054,1416
1895,2047,1973,2001,1418
1965,2038,1997,2020,1419
2243,2062,2073,2087,1420
1967,2048,2015,2034,1422
1930,2062,2080,2070,1422
2272,2065,2064,2035,1423
2100,2072,2220,2086,1423
1899,2071,2156,2103,1423
2189,2073,1947,2039,1423
2168,2079,1936,2056,1423
1880,2066,2112,2053,1423
2078,2053,2063,2028,1423
2213,2072,2066,2085,1422
1928,2053,1995,2048,1422
1985,2080,2054,2062,1422
2256,2076,2064,2068,1421
2000,2058,2012,2040,1420
1902,2053,2005,2058,1420
2185,2062,2032,2060,1419
2134,2062,2024,2044,1418
1867,2048,1977,2039,1417
2124,2062,2053,2058,1416
2232,2058,1984,2025,1414
1896,2057,1992,2039,1413
2094,2060,2057,2087,1411
2261,2066,1963,2064,1409
1950,2063,2004,2072,1406
1952,2061,2201,2087,1404
2231,2056,2117,2038,1401
2036,2084,2252,2124,1397
1842,2047,1886,2005,1394
2195,2085,2111,2111,1390
2122,2077,2090,2079,1386
1839,2066,2082,2053,1382
2075,2076,2024,2051,1378
2189,2061,1998,2025,1374
1865,2052,2060,2038,1369
2025,2056,2026,2056,1365
2244,2075,2051,2086,1360
1956,2076,2068,2086,1356
1952,2073,2044,2067,1351
2247,2066,2038,2061,1346
2059,2065,2037,2050,1341
1884,2053,1991,2044,1336
2164,2050,1927,2026,1331
2136,2051,1984,2033,1326
1883,2046,2045,2000,1320
2090,2045,2145,2079,1314
2213,2060,2099,2061,1308
1912,2057,2039,2050,1302
2021,2066,2044,2057,1296
2247,2061,2070,2056,1290
1983,2053,2091,2082,1283
1903,2059,2121,2090,1277
2197,2067,2075,2059,1271
2017,2061,2023,2031,1264
1833,2055,2056,2055,1258
2157,2057,2000,2052,1252
2137,2060,1994,2045,1246
1894,2055,2034,2059,1240
2077,2062,2018,2046,1234
2218,2072,2003,2056,1227
1940,2073,2024,2062,1221
1995,2068,2046,2067,1214
2240,2059,2048,2050,1207
2022,2062,1966,2017,1199
1907,2038,1988,2053,1191
2219,2064,2066,2089,1183
2094,2057,2122,2079,1175
1873,2057,2135,2063,1167
2154,2069,2129,2070,1159
2167,2060,2122,2093,1151
1890,2052,2113,2066,1143
2045,2037,2027,2003,1136
2224,2064,2013,2025,1129
1952,2052,2005,2041,1123
1969,2057,2001,2039,1117
2214,2067,2015,2042,1111
2042,2073,2028,2068,1105
1911,2059,2019,2047,1099
2208,2057,2026,2049,1094
2117,2056,2020,2047,1088
1863,2052,2001,2043,1082
2095,2062,1950,2037,1076
2170,2043,2012,2043,1069
1869,2036,1982,2015,1063
2018,2042,2057,2019,1055
2232,2067,2155,2096,1048
1957,2064,2112,2075,1040
1924,2053,2071,2072,1032
2198,2051,2082,2059,1024
2027,2053,2080,2056,1016
1859,2049,2098,2049,1008
2183,2064,2100,2063,1001
2125,2069,2033,2051,0993
1862,2070,2052,2069,0986
2132,2068,2025,2060,0978
2218,2065,2004,2044,0971
1908,2048,1994,2027,0964
2004,2043,1976,2008,0956
2239,2048,1993,2050,0949
1984,2055,1964,2046,0942
1942,2055,1984,2050,0934
2246,2065,2068,2066,0926
2082,2072,2124,2059,0918
1904,2071,2121,2048,0910
2192,2070,2090,2069,0902
2179,2075,2097,2099,0894
1919,2082,2090,2097,0886
2126,2086,2099,2112,0878
2255,2093,2100,2078,0869
1942,2079,2096,2077,0861
1986,2071,2069,2062,0853
2221,2064,2015,2043,0845
1994,2044,1992,2031,0837
1894,2031,1992,2024,0829
2201,2044,2003,2032,0821
2083,2047,1988,2027,0814
1864,2032,1988,2027,0806
2136,2039,2002,2036,0798
2167,2045,1954,2035,0790
1884,2048,1906,2005,0782
2024,2053,1976,2029,0774
2244,2065,2091,2054,0765
1924,2048,2196,2108,0757
1974,2055,2136,2097,0748
2237,2062,2085,2068,0740
2029,2067,2089,2075,0732
1904,2063,2118,2061,0724
2197,2063,2096,2074,0715
2127,2071,2057,2061,0708
1893,2071,2012,2054,0700
2126,2074,2009,2061,0692
2199,2080,2020,2069,0684
1908,2079,2043,2065,0677
2040,2094,2017,2072,0669
2240,2079,2043,2072,0662
1952,2065,2007,2054,0655
1949,2050,1988,2045,0647
2183,2029,1952,2029,0640
2032,2038,2003,2047,0632
1846,2015,2046,2018,0624
2129,2017,2100,2020,0617
2092,2015,2069,2015,0609
1879,2047,1980,2031,0602
2104,2061,1918,2046,0594
2230,2071,2048,2077,0586
1928,2066,2187,2075,0578
2038,2056,2234,2083,0571
2221,2077,2125,2071,0563
1943,2070,2011,2053,0556
1887,2063,2000,2054,0549
2205,2071,2030,2057,0541
2090,2056,2005,2058,0534
1918,2060,1980,2053,0527
2206,2080,2028,2096,0520
2167,2064,2024,2063,0514
1882,2055,2041,2055,0507
2073,2051,2052,2045,0500
2207,2049,2040,2039,0493
1923,2045,2048,2038,0486
1979,2043,2058,2044,0480
2214,2044,2053,2044,0473
2001,2054,2036,2051,0466
1926,2056,2029,2060,0460
2218,2059,1971,2056,0453
2079,2037,1949,2031,0446
1892,2060,1984,2067,0440
2141,2064,2122,2076,0433
2161,2076,2187,2081,0426
1878,2067,2133,2053,0420
2023,2063,2025,2047,0413
2193,2064,2006,2058,0406
1925,2050,2068,2049,0400
1980,2068,2113,2069,0393
2244,2076,2074,2072,0387
2024,2056,2009,2045,0381
1932,2057,2015,2055,0375
2193,2048,2021,2048,0368
2145,2075,2050,2078,0363
1905,2053,2027,2062,0357
2152,2070,2043,2069,0351
2216,2054,2033,2055,0345
1909,2043,2017,2035,0340
2013,2030,2019,2035,0335
2200,2043,2023,2032,0329
1925,2018,2003,2018,0324
1949,2063,2027,2038,0319
2232,2062,2054,2068,0313
2071,2078,2064,2075,0308
1916,2079,2062,2073,0303
2152,2045,2038,2062,0298
2136,2065,2044,2061,0293
1878,2051,2044,2050,0288
2106,2064,2045,2058,0283
2213,2076,2055,2071,0278
1941,2081,2062,2067,0273
2024,2074,2062,2065,0268
2231,2066,2081,2091,0263
2005,2072,2058,2072,0259
1945,2065,2042,2060,0254
2210,2075,2055,2073,0249
2016,2018,2002,2032,0245
1905,2055,2057,2080,0240
2137,2055,2047,2053,0236
2133,2051,2025,2047,0232
1904,2052,2041,2046,0227
2063,2048,2026,2030,0223
2196,2064,2050,2065,0219
1943,2061,2047,2058,0215
2013,2076,2064,2076,0211
2227,2076,2066,2075,0207
2000,2072,2060,2061,0204
1930,2054,2032,2033,0200
2181,2053,2054,2071,0197
2080,2058,2048,2070,0194
1881,2045,2032,2042,0191
2196,2110,2085,2085,0188
2171,2082,2060,2066,0185
1906,2079,2055,2052,0182
2064,2065,2058,2052,0180
2198,2056,2064,2071,0177
1928,2061,2036,2053,0175
1978,2057,2015,2053,0173
2214,2054,2015,2036,0171
2018,2059,2045,2049,0168
1904,2053,2048,2056,0166
2196,2074,2051,2060,0164
2118,2083,2063,2069,0162
1917,2085,2056,2067,0160
2106,2048,2037,2046,0158
2183,2068,2043,2050,0156
1898,2057,2035,2042,0153
2016,2041,2041,2049,0151
2209,2063,2023,2035,0149
1968,2055,2031,2031,0147
1953,2055,2047,2039,0145
2222,2070,2047,2073,0143
2065,2081,2046,2069,0141
1903,2055,2046,2060,0139
2179,2063,2067,2078,0137
2122,2049,2020,2048,0135
1900,2064,2029,2051,0133
2110,2069,2040,2056,0131
2195,2065,2079,2082,0128
1907,2060,2060,2071,0126
2031,2069,2053,2062,0124
2207,2061,2048,2072,0121
1970,2052,2036,2027,0118
1929,2052,2043,2047,0116
2206,2050,2049,2076,0113
2031,2033,2018,2043,0111
1881,2051,2027,2056,0108
2163,2068,2036,2050,0106
2162,2080,2057,2060,0103
1893,2056,2043,2054,0101
2101,2079,2052,2059,0099
2213,2072,2048,2048,0097
1947,2080,2056,2065,0095
1997,2063,2055,2076,0093
2218,2053,2034,2048,0091
1992,2057,2040,2053,0089
1947,2073,2049,2057,0088
2211,2061,2045,2061,0086
2091,2072,2053,2066,0085
1872,2043,2019,2045,0084
2164,2078,2042,2061,0084
2163,2061,2044,2057,0083
1898,2063,2049,2063,0083
2051,2046,2028,2044,0082
2229,2070,1997,2042,0082
1930,2048,1987,2040,0082
1968,2062,2026,2048,0082
2238,2062,2047,2056,0082
2015,2051,2037,2054,0083
1887,2040,2042,2044,0083
2200,2066,2103,2079,0083
2108,2058,2150,2052,0083
1873,2052,2123,2045,0084
2125,2055,2054,2036,0084
2183,2062,1989,2046,0085
1900,2060,2034,2062,0086
2031,2050,2068,2058,0087
2224,2059,2079,2063,0088
1953,2061,1946,2013,0089
1950,2058,1968,2041,0091
2229,2063,2007,2037,0093
2031,2068,2196,2125,0095
1911,2058,2080,2063,0097
2189,2063,1938,2040,0100
2130,2071,1911,2040,0103
1873,2062,2141,2075,0106
2098,2065,2252,2129,0109
2186,2065,2231,2103,0113
1911,2056,2088,2069,0117
2023,2049,2023,2043,0122
2244,2072,1989,2036,0127
1992,2063,1922,2027,0132
1956,2068,1817,2007,0138
2206,2056,1758,1994,0144
2055,2071,1855,2031,0151
1913,2065,2075,2076,0157
2167,2065,2329,2125,0164
2168,2066,2264,2104,0171
1891,2068,2213,2066,0179
2075,2080,2166,2064,0186
2218,2086,2153,2085,0194
1963,2079,2027,2063,0202
2018,2088,1929,2050,0210
2250,2090,1998,2080,0218
2027,2089,2062,2065,0227
1953,2088,2021,2065,0235
2197,2072,1871,2031,0244
2072,2054,1931,2061,0253
1894,2061,2019,2088,0262
2159,2066,2022,2060,0272
2157,2068,2013,2076,0281
1935,2082,2120,2073,0290
2065,2072,2313,2089,0300
2214,2089,2353,2114,0309
1976,2067,2063,2025,0319
1960,2025,1879,1990,0328
2173,2027,1801,1991,0338
1998,2028,1925,2002,0348
1876,2025,1949,2044,0358
2152,2029,2118,2057,0368
2086,2042,2130,2049,0378
1875,2048,2055,2018,0388
2107,2057,1997,2050,0398
2186,2052,1957,2047,0408
1893,2042,2031,2044,0418
2032,2048,1978,2035,0428
2220,2057,1888,2042,0438
1975,2073,1919,2052,0448
1993,2089,2148,2075,0458
2239,2098,2236,2109,0468
2081,2089,2113,2042,0478
1909,2047,2047,2058,0488
2151,2038,2112,2048,0498
2068,2028,2246,2058,0509
1839,2020,2156,2034,0519
2065,2021,1841,1974,0529
2175,2038,1729,1972,0540
1899,2064,1943,2053,0550
2004,2062,1901,2017,0560
2232,2078,1976,2040,0571
1977,2085,2094,2054,0581
1943,2082,2245,2117,0591
2209,2075,2171,2080,0602
2057,2084,2037,2032,0612
1887,2071,2012,2030,0622
2183,2079,1986,2068,0632
2155,2057,2170,2126,0643
1941,2039,2141,2089,0653
2243,2041,2127,2073,0664
2402,2062,2051,2075,0674
1996,2046,1855,2026,0685
1962,2043,1939,2036,0696
2108,2063,2132,2091,0706
1874,2049,1919,1967,0717
1846,2039,1775,1969,0728
2166,2062,2111,2071,0738
2009,2081,2336,2139,0749
1812,2077,2350,2153,0759
2136,2068,2007,2042,0770
2149,2057,1787,2006,0780
1837,2054,2009,2064,0791
2060,2061,2247,2091,0801
2224,2073,2037,2036,0812
1950,2049,1854,1989,0822
1989,2055,1905,2029,0833
2245,2066,2152,2101,0843
2034,2071,2230,2106,0853
1914,2072,2179,2092,0863
2213,2074,2084,2072,0873
2111,2096,2033,2047,0884
1886,2072,1803,1984,0894
2113,2058,1863,2015,0904
2213,2077,2136,2081,0914
1901,2075,2095,2081,0924
2063,2069,1869,1979,0933
2242,2080,1824,1949,0943
1973,2084,2293,2178,0952
1969,2075,2147,2111,0962
2254,2075,2173,2116,0971
2086,2065,2066,2078,0980
1911,2060,2141,2061,0989
2200,2052,1791,1988,0998
2135,2053,1861,2027,1007
1914,2077,2191,2101,1016
2156,2087,2147,2046,1024
2201,2093,2018,2031,1033
1922,2078,2060,2101,1041
2056,2082,2276,2190,1050
2245,2082,2129,2120,1058
1978,2051,1857,1996,1066
1918,2036,2001,2002,1074
2183,2044,2154,2081,1082
2022,2031,1989,2014,1090
1855,2011,1869,1959,1098
2131,2048,2177,2048,1105
2143,2071,2239,2133,1113
1888,2048,1955,2047,1121
2109,2047,1851,2015,1128
2212,2047,2021,2076,1136
1911,2044,1947,1977,1143
1981,2039,1956,2026,1150
2235,2063,2165,2045,1157
1990,2059,2266,2096,1164
1934,2081,2039,2081,1171
2224,2064,1817,1996,1178
2105,2081,2201,2160,1185
1888,2068,2023,2043,1192
2089,2029,1936,2024,1199
2178,2047,1985,1971,1205
1887,2056,2352,2157,1212
2074,2073,2254,2102,1218
2232,2051,1781,1967,1225
1961,2053,1960,2070,1231
1956,2052,2284,2134,1237
2238,2063,2131,2076,1244
2004,2037,1866,1998,1250
1906,2042,1982,1986,1256
2253,2076,2078,2072,1262
2123,2066,2083,2062,1268
1899,2071,2093,2093,1273
2117,2069,2152,2105,1279
2173,2077,2146,2093,1284
1879,2045,1858,1966,1290
2023,2046,1912,2014,1295
2210,2062,2136,2076,1300
1908,2056,2112,2069,1306
1919,2048,1916,2011,1310
2186,2047,1917,2006,1315
1994,2055,1969,2043,1319
1856,2047,2039,2039,1324
2179,2069,2072,2076,1328
2119,2057,2107,2061,1331
1881,2068,2033,2073,1335
2086,2056,2111,2061,1338
2213,2076,2093,2046,1341
1908,2064,2163,2056,1344
2021,2063,2078,2056,1346
2274,2075,1985,2060,1348
1990,2062,2025,2065,1350
1960,2060,2000,2062,1352
2236,2052,1971,2058,1353
2075,2052,1975,2015,1354
1893,2055,2028,2027,1354
2194,2063,2035,2042,1355
2178,2067,2095,2070,1355
1892,2061,2121,2094,1354
2097,2061,2104,2081,1354
2221,2067,2078,2064,1353
1909,2047,2083,2071,1353
1988,2041,2040,2039,1352
2243,2056,1935,2017,1351
1980,2048,1829,2063,1349
1927,2059,2080,2041,1348
2202,2045,2184,2068,1346
2095,2065,2178,2051,1343
1872,2046,2045,2035,1341
2171,2063,1995,2061,1339
2159,2068,2042,2058,1336
1867,2059,2034,2047,1334
2076,2069,1999,2062,1331
2295,2084,2066,2075,1328
1944,2057,2026,2035,1325
2033,2067,2073,2057,1322
2247,2078,2012,2061,1319
2012,2071,1983,2054,1315
1949,2070,2064,2066,1311
2242,2080,2098,2078,1307
2124,2076,2188,2121,1302
1876,2068,2090,2080,1297
2121,2049,2068,2063,1292
2159,2068,2103,2070,1287
1861,2060,2066,2077,1282
2017,2048,1983,2036,1276
2182,2044,1992,2014,1271
1891,2042,2093,2043,1266
1905,2045,2117,2060,1260
2202,2048,2037,2036,1255
2018,2063,1987,2048,1250
1900,2054,2021,2055,1244
2198,2069,2037,2061,1239
2152,2071,2016,2058,1233
1884,2070,2005,2048,1228
2147,2071,1982,2027,1222
2206,2078,2014,2074,1215
1920,2070,1989,2082,1209
2024,2065,2111,2094,1202
2246,2063,2092,2055,1195
1969,2050,2063,2021,1188
1911,2050,2199,2117,1181
2214,2052,2114,2097,1174
2053,2060,2105,2082,1166
1888,2036,2010,2026,1159
2184,2047,1975,2019,1152
2163,2058,2029,2048,1146
1896,2060,2022,2047,1139
2097,2059,1998,2033,1133
2217,2054,2018,2051,1127
1901,2045,2026,2043,1121
1984,2050,1996,2034,1115
2234,2063,2008,2051,1108
1983,2062,2044,2069,1102
1924,2065,2067,2061,1095
2215,2063,2020,2046,1088
2082,2063,2008,2039,1081
1881,2057,2075,2078,1074
2155,2054,2084,2070,1066
2189,2084,2126,2068,1058
1896,2055,2107,2063,1050
2065,2048,2109,2063,1041
2223,2057,2111,2057,1033
1914,2044,2055,2044,1025
1947,2047,2031,2031,1017
2191,2043,2001,2036,1010
1976,2050,1991,2032,1002
1913,2052,2011,2040,0995
2189,2056,2018,2040,0987
2131,2056,2016,2041,0980
1883,2052,2036,2050,0972
2119,2061,2046,2053,0965
2182,2067,2029,2062,0957
1889,2071,1996,2045,0949
2035,2067,2006,2068,0941
2248,2081,2064,2091,0932
1963,2067,2093,2088,0924
1968,2065,2103,2065,0915
2239,2056,2062,2047,0906
2030,2057,2120,2091,0897
1892,2049,2080,2057,0888
2208,2054,2055,2080,0879
2132,2062,2022,2039,0870
1877,2061,2070,2052,0861
2113,2065,2136,2069,0852
2211,2077,2091,2058,0844
1920,2077,2028,2065,0835
2054,2065,2018,2071,0826
2269,2077,2042,2072,0818
2011,2075,2035,2075,0810
1980,2080,2027,2073,0801
2261,2086,2046,2070,0793
2090,2081,2040,2073,0785
1893,2050,1978,2042,0777
2168,2031,1928,2019,0768
2109,2016,1962,2011,0760
1839,2014,2030,2025,0751
2038,2009,2120,2029,0743
2156,2031,2085,2030,0734
1869,2029,2105,2037,0725
1970,2039,2107,2063,0717
2222,2057,2051,2063,0708
1985,2067,1990,2055,0700
1905,2061,1983,2046,0692
2219,2069,2036,2044,0684
2090,2071,2114,2064,0676
1890,2062,2048,2038,0668
2190,2065,2048,2059,0660
2210,2072,2031,2069,0652
1921,2083,2040,2078,0645
2091,2081,2052,2083,0637
2233,2085,2056,2087,0629
1940,2064,2036,2060,0621
1975,2055,2015,2055,0613
2212,2045,2037,2049,0605
1991,2046,2014,2040,0596
1890,2033,2024,2029,0588
2175,2037,2027,2037,0579
2081,2037,2031,2032,0571
1836,2046,2044,2046,0562
2051,2048,2011,2049,0553
2120,2057,1956,2028,0544
1891,2049,2008,2050,0534
2064,2056,2089,2072,0525
2240,2065,2112,2065,0515
1968,2055,2043,2043,0506
1944,2060,1995,2034,0496
2252,2083,2107,2084,0487
2073,2072,2136,2080,0477
1935,2069,2123,2065,0468
2203,2068,2055,2071,0458
2135,2058,2007,2060,0449
1901,2048,2025,2057,0440
2101,2050,2039,2047,0432
2201,2070,2084,2073,0423
1926,2077,2056,2065,0415
1997,2058,2025,2045,0407
2195,2057,2012,2043,0399
1923,2031,2008,2028,0391
1914,2053,2028,2057,0384
2192,2043,2021,2051,0376
2093,2088,2051,2063,0369
1860,2063,2014,2034,0362
2187,2066,2050,2065,0356
2144,2037,2014,2036,0349
1896,2055,2044,2049,0343
2117,2073,2060,2070,0336
2227,2069,2052,2064,0330
1930,2057,2045,2044,0324
1999,2054,2039,2053,0318
2248,2078,2067,2076,0312
2013,2076,2061,2077,0306
1929,2057,2036,2048,0300
2189,2042,2031,2049,0294
2067,2039,2016,2033,0289
1880,2038,2033,2045,0283
2168,2083,2069,2071,0278
2195,2083,2084,2082,0272
1899,2060,2057,2069,0267
2059,2064,2019,2036,0261
2212,2059,2029,2041,0256
1940,2061,2050,2071,0251
1966,2061,2065,2064,0246
2221,2052,2042,2095,0241
2006,2053,2007,2051,0236
1866,2018,1987,2014,0231
2102,1991,1970,1992,0227
2098,2048,2035,2041,0222
1895,2060,2049,2063,0218
2123,2069,2056,2066,0213
2169,2059,2059,2063,0209
1930,2071,2075,2080,0204
2049,2080,2072,2073,0200
2232,2080,2073,2080,0196
1972,2072,2053,2055,0193
1949,2049,2048,2049,0189
2241,2090,2088,2093,0186
2121,2148,2139,2146,0182
1905,2064,2038,2039,0179
2210,2087,2099,2116,0176
2063,1991,1924,1966,0174
1922,2099,2079,2116,0171
2104,2064,2022,2042,0168
2178,2043,2009,2020,0165
1889,2038,2026,2043,0163
1962,2016,1993,2006,0160
2142,1994,1980,1987,0157
1969,2029,2021,2024,0155
1914,2037,2028,2033,0152
2239,2097,2092,2097,0149
2079,2069,2071,2081,0145
1922,2079,2062,2066,0142
2195,2102,2091,2096,0139
2133,2053,2036,2039,0135
1883,2044,2040,2044,0132
2074,2045,2034,2036,0128
2193,2056,2048,2066,0125
1907,2037,2032,2039,0122
1977,2039,1994,2020,0119
2198,2040,2033,2037,0116
1994,2062,2001,1995,0113
1924,2062,2073,2081,0110
2247,2114,2100,2108,0107
2098,2084,2045,2051,0104
1902,2063,2023,2069,0101
2132,2049,2052,2083,0098
2144,2051,2023,2054,0095
1891,2056,2037,2052,0092
2069,2063,2039,2050,0089
2219,2051,2056,2056,0086
1943,2060,2054,2058,0082
1951,2035,2040,2032,0079
2215,2049,2047,2038,0076
2022,2062,2029,2045,0073
1925,2074,2055,2050,0070
2186,2055,2051,2069,0068
2097,2044,2033,2042,0065
1856,2030,2015,2025,0062
2120,2062,2029,2038,0060
2205,2088,2057,2064,0058
1915,2068,2060,2096,0055
2096,2110,2086,2111,0053
2227,2067,2059,2067,0051
1959,2057,2047,2055,0049
1949,2041,2026,2037,0047
2210,2061,2043,2055,0045
2059,2085,2067,2071,0044
1934,2085,2047,2052,0042
2157,2033,2018,2022,0041
2112,2058,2030,2044,0039
1868,2042,2044,2037,0038
2097,2049,2045,2042,0038
2173,2042,2025,2046,0037
1893,2042,2023,2037,0036
1994,2040,2016,2038,0036
2214,2049,2013,2047,0036
1993,2070,2024,2057,0036
1927,2056,2042,2056,0036
2195,2052,2047,2047,0036
2084,2081,2058,2062,0036
1887,2063,1997,2037,0036
2173,2069,2064,2065,0036
2159,2062,2090,2075,0037
1887,2058,2098,2061,0037
2085,2061,2069,2064,0038
2212,2069,2002,2048,0039
1935,2062,1989,2051,0040
2008,2082,1988,2053,0041
2234,2061,2020,2071,0043
2013,2063,2122,2072,0045
1921,2041,2174,2067,0047
2218,2064,2151,2063,0050
2094,2075,2064,2047,0052
1879,2063,1981,2039,0055
2164,2071,1997,2056,0058
2169,2070,2037,2111,0061
1880,2051,1966,2049,0065
2057,2054,2048,2088,0068
2216,2059,2030,2071,0072
1935,2056,2001,2049,0076
1973,2066,1961,2040,0080
2239,2063,1945,2008,0085
2062,2090,2144,2087,0089
1928,2082,2165,2104,0094
2236,2086,2202,2109,0099
2117,2069,2094,2095,0104
1886,2079,2121,2084,0109
2126,2057,2172,2088,0114
2184,2053,2110,2036,0120
1870,2031,1999,2005,0126
2023,2037,1978,2014,0132
2224,2057,2006,2039,0138
1972,2069,1980,2043,0145
1982,2073,1929,2037,0152
2246,2083,1883,2059,0159
2071,2088,2007,2062,0166
1969,2143,2059,2152,0173
2235,2116,1943,2053,0180
2158,2083,1895,2041,0188
1879,2054,2042,2056,0195
2036,2028,2339,2140,0202
2169,2046,2303,2106,0210
1886,2038,2144,2057,0218
2020,2060,2071,2052,0225
2240,2088,2128,2071,0233
1955,2036,2080,2010,0241
1936,2041,1916,1988,0250
2146,2008,1906,2015,0258
2037,2033,1982,2036,0267
1912,2057,2109,2080,0276
2154,2065,2003,2029,0285
2120,2032,1917,1994,0294
1848,2011,1903,1999,0304
2026,2005,1944,2002,0313
2195,2036,1986,2019,0323
1948,2069,1977,1989,0332
1971,2049,2103,2074,0341
2215,2061,2161,2112,0351
2013,2072,2111,2128,0360
1970,2066,1961,2071,0370
2228,2091,1872,2042,0379
2101,2083,1983,2068,0388
1898,2057,2136,2071,0397
2139,2062,2218,2077,0407
2155,2061,2156,2031,0416
1897,2043,2076,2033,0425
2061,2051,2026,2034,0435
2274,2149,2008,2122,0444
2007,2119,1972,2115,0454
2071,2123,2079,2107,0463
2222,2066,2142,2102,0473
1984,2042,2214,2070,0482
1837,2006,2094,2009,0492
2101,1993,2000,1959,0502
2042,2004,1947,1959,0512
1884,2056,2040,2037,0522
2109,2055,2013,2029,0532
2164,2047,1893,1987,0542
1857,2019,1777,1978,0552
1999,2056,2047,2045,0562
2213,2085,2318,2186,0572
1971,2081,2188,2077,0583
1971,2091,1939,2054,0593
2252,2112,1915,2041,0603
2061,2116,1958,2037,0613
1947,2075,1962,2025,0623
2279,2060,2074,2088,0633
2387,2043,2173,2067,0643
1968,2031,2205,2121,0653
2111,2033,2081,2086,0663
2086,2039,2017,2040,0673
1755,2027,1930,2007,0683
1932,2052,2098,2065,0693
2196,2078,2173,2102,0704
1931,2061,2340,2141,0714
1886,2072,2118,2085,0724
2194,2071,1829,2001,0734
2040,2068,1861,2040,0744
1861,2057,2136,2071,0755
2149,2061,1971,2041,0765
2131,2045,1694,1957,0775
1869,2058,1968,2013,0785
2106,2062,2412,2153,0795
2246,2077,2354,2122,0805
1951,2059,2018,2056,0815
1987,2048,1901,2048,0825
2194,2066,2061,2056,0835
2024,2075,2047,2057,0845
1926,2068,1945,1976,0854
2231,2083,2116,2091,0864
2098,2083,2144,2074,0873
1853,2078,1975,2071,0883
2140,2059,1954,2033,0892
2175,2065,2057,2027,0901
1886,2061,2093,2066,0910
2048,2061,1954,2046,0919
2237,2070,1872,2019,0928
1958,2063,1967,2051,0936
1996,2057,1879,1959,0944
2254,2104,2218,2100,0952
2055,2081,2443,2217,0961
1931,2067,2357,2146,0969
2210,2065,2006,2021,0977
2125,2050,1694,1965,0985
1873,2063,1873,2022,0993
2137,2062,2179,2090,1001
2202,2067,2326,2130,1009
1903,2052,1944,2041,1017
2044,2065,1990,2069,1025
2262,2077,2172,2106,1033
1980,2072,2132,2040,1040
1972,2051,1865,2000,1048
2239,2047,1797,2031,1055
2028,2049,2102,2073,1063
1865,2045,2254,2054,1070
2185,2065,2051,2078,1077
2126,2061,1638,2014,1084
1865,2056,1985,2045,1092
2102,2053,2477,2199,1099
2193,2049,2295,2051,1106
1887,2037,1897,1964,1112
2001,2035,1837,2000,1120
2246,2059,2105,2071,1127
1975,2075,2128,2108,1133
1949,2052,1767,2004,1140
2240,2071,1980,2072,1147
2063,2070,2326,2128,1154
1918,2059,2131,2053,1161
2168,2055,1926,1987,1168
2189,2061,1889,2021,1174
1871,2050,1998,2008,1181
2045,2039,2022,2032,1187
2228,2065,2064,2085,1194
1893,2048,2240,2101,1200
1990,2064,2074,1985,1207
2243,2063,1988,2017,1213
1989,2066,2084,2118,1219
1924,2065,2255,2164,1226
2219,2062,1977,2035,1232
2086,2043,1786,1973,1238
1873,2037,2040,2056,1245
2168,2061,2246,2110,1251
2183,2045,1799,1965,1257
1880,2045,1762,2012,1263
2083,2079,2093,2062,1269
2272,2134,2445,2204,1274
1943,2091,2190,2101,1280
2006,2039,1662,1961,1285
2205,2052,2040,2022,1291
1945,2025,2170,2044,1296
1884,2071,2323,2153,1302
2139,2030,2020,2017,1308
2061,2057,2039,2049,1313
1843,2072,2081,2036,1318
2097,2056,2001,2046,1324
2156,2062,2038,2058,1329
1859,2053,2011,2050,1334
1993,2009,1633,1893,1339
2190,2046,1919,2006,1344
1939,2077,2216,2125,1349
1960,2074,2288,2133,1353
2254,2060,1953,2003,1357
2060,2051,1796,1993,1361
1889,2049,1866,2059,1365
2197,2071,2253,2100,1369
2156,2073,2229,2077,1372
1838,2011,2090,2015,1375
2137,2043,1924,1997,1378
2221,2042,1918,2047,1381
1931,2073,2119,2081,1384
2012,2033,2131,2098,1387
2287,2089,2078,2084,1389
2028,2098,2061,2059,1391
1956,2058,2066,2055,1393
2266,2070,2034,2053,1395
2091,2072,2033,2060,1397
1870,2041,2051,2034,1399
2147,2047,2006,2032,1400
2190,2057,1933,2043,1401
1891,2068,1996,2053,1401
2096,2072,2174,2097,1402
2225,2054,2113,2076,1402
1894,2044,2080,2071,1402
1954,2027,1942,2008,1402
2238,2057,2101,2094,1401
1957,2045,2114,2074,1401
1898,2084,1999,2070,1400
2264,2069,2031,2053,1400
2121,2073,2064,2068,1399
1913,2068,2030,2047,1398
2149,2076,2128,2107,1396
2185,2089,2086,2077,1395
1885,2080,2105,2083,1393
2077,2075,2054,2058,1392
2251,2071,1997,2033,1390
1905,2057,2016,2043,1388
1937,2047,2029,2053,1387
2277,2057,2024,2043,1385
2007,2050,1978,2034,1383
1885,2045,2013,2029,1380
2219,2047,2028,2055,1378
2112,2066,2095,2083,1375
1865,2064,2080,2078,1372
2127,2061,1987,2025,1369
2206,2077,2033,2065,1365
1884,2058,2062,2073,1361
2008,2047,2054,2056,1357
2224,2053,2194,2134,1352
1942,2052,2034,2056,1348
1946,2056,2076,2035,1343
2265,2078,2103,2052,1338
2062,2074,2126,2087,1332
1886,2045,2067,2069,1327
2166,2041,1970,2038,1322
2134,2043,1990,2022,1317
1880,2064,2071,2061,1312
2114,2077,2045,2062,1307
2264,2077,1994,2045,1302
1912,2071,2031,2064,1297
2013,2067,2028,2048,1292
2232,2075,2013,2057,1286
1940,2061,2001,2041,1280
1893,2078,2085,2103,1274
2218,2078,2056,2053,1268
2028,2065,2076,2080,1261
1852,2064,1995,2029,1255
2127,2069,2033,2071,1248
2101,2042,2128,2085,1240
1854,2071,2152,2090,1233
2073,2049,2125,2063,1226
2219,2057,2025,2031,1218
1903,2036,1984,2011,1211
1973,2037,2006,2039,1204
2231,2040,1997,2024,1197
1996,2043,1999,2029,1190
1914,2037,1997,2025,1183
2239,2047,1999,2032,1175
2107,2059,2007,2043,1168
1896,2051,1993,2037,1160
2162,2060,2025,2065,1152
2176,2070,2071,2107,1144
1918,2072,1894,2018,1135
2075,2062,2027,2055,1127
2234,2081,2183,2115,1118
1935,2071,2266,2146,1109
2009,2087,2208,2132,1100
2237,2083,2055,2057,1091
2019,2064,2013,2039,1082
1961,2054,2042,2057,1074
2208,2052,1998,2038,1065
2117,2041,2007,2022,1057
1849,2029,2020,2026,1049
2052,2025,2007,2020,1040
2129,2039,2016,2024,1032
1846,2033,1999,2022,1024
1971,2035,2018,2033,1015
2183,2051,2029,2046,1006
1925,2064,1916,2031,0997
1938,2070,1975,2060,0987
2232,2074,2080,2087,0978
2061,2076,2171,2099,0968
1890,2059,2172,2095,0957
2216,2056,2070,2041,0947
2158,2060,2086,2070,0937
1916,2080,2128,2084,0926
2171,2099,2111,2096,0916
2294,2114,2076,2094,0906
1963,2094,2074,2077,0895
2047,2081,2060,2073,0885
2246,2064,2004,2038,0875
1970,2056,2009,2034,0864
1919,2056,2020,2053,0854
2210,2054,1999,2052,0843
2054,2045,1977,2033,0833
1880,2024,1899,2000,0822
2141,2017,1941,1993,0811
2130,2021,2033,2025,0800
1874,2026,2079,2049,0789
2070,2037,2057,2057,0778
2214,2041,2081,2061,0766
1899,2043,2144,2045,0755
1977,2063,2205,2072,0744
2226,2077,2091,2075,0732
1983,2087,2015,2081,0721
1949,2100,2026,2083,0711
2248,2076,2051,2062,0700
2099,2073,2045,2059,0690
1904,2063,2020,2052,0679
2136,2039,1998,2035,0669
2153,2050,1989,2042,0659
1877,2036,1942,2029,0649
2021,2016,1892,2010,0639
2204,2033,2014,2056,0628
1905,2028,2093,2038,0618
1949,2017,2063,2045,0608
2216,2040,1913,2020,0598
2041,2063,1957,2048,0587
1906,2060,2086,2076,0577
2181,2057,2278,2095,0567
2110,2053,2262,2110,0557
1903,2069,2153,2085,0548
2136,2067,2045,2058,0538
2194,2068,1990,2046,0530
1884,2058,1995,2048,0521
1981,2068,1998,2049,0513
2145,2043,1977,2036,0506
1905,2057,1997,2047,0499
1897,2050,2010,2046,0492
2236,2062,2040,2071,0486
2079,2069,2044,2067,0479
1945,2064,2039,2059,0473
2210,2031,2031,2048,0467
2183,2073,2041,2055,0461
1945,2066,2055,2069,0455
2131,2062,2044,2062,0449
2197,2054,2036,2049,0444
1896,2046,2023,2044,0438
1973,2057,2029,2042,0432
2259,2095,2081,2083,0427
1985,2056,2022,2048,0421
1955,2068,2035,2065,0415
2209,2067,1990,2048,0409
2098,2077,2093,2087,0403
1896,2062,2105,2060,0397
2169,2073,2112,2076,0391
2160,2072,2053,2056,0385
1897,2053,2015,2047,0379
2072,2059,2030,2054,0372
2237,2087,2069,2084,0366
1969,2086,2062,2083,0359
2001,2086,2049,2066,0353
2227,2052,2037,2048,0346
2012,2057,2038,2058,0340
1920,2055,2037,2057,0333
2213,2080,2059,2075,0327
2113,2085,2069,2083,0320
1897,2067,2047,2067,0314
2125,2043,2040,2053,0307
2133,2019,2017,2028,0301
1890,2049,2031,2045,0294
2047,2053,2044,2054,0288
2198,2051,2046,2053,0282
1965,2072,2046,2058,0275
1935,2035,2032,2031,0269
2215,2080,2056,2058,0263
2003,2033,2022,2029,0257
1878,2024,2010,2021,0251
2159,2040,2030,2043,0245
2098,2064,2029,2041,0240
1896,2071,2049,2059,0234
2125,2067,2054,2067,0229
2199,2083,2059,2068,0224
1917,2063,2056,2049,0219
2015,2038,2037,2037,0214
2236,2080,2081,2100,0209
1954,2050,2018,2037,0205
1960,2061,2041,2052,0200
2198,2043,2022,2048,0196
2043,2061,2041,2070,0192
1902,2076,2014,2043,0189
2158,2057,2045,2058,0185
2150,2086,2061,2074,0181
1910,2079,2065,2087,0178
2085,2054,2027,2047,0175
2197,2068,2039,2057,0172
1931,2076,2064,2081,0169
1994,2058,2063,2071,0167
2248,2077,2072,2075,0164
1989,2066,2065,2057,0162
1922,2064,2058,2057,0160
2209,2060,2036,2034,0158
2082,2065,2060,2064,0156
1866,2053,2037,2036,0155
2155,2063,2038,2051,0153
2161,2069,2035,2045,0152
1913,2078,2083,2093,0150
2047,2042,2016,2029,0149
2223,2071,2048,2051,0148
1918,2051,2037,2033,0147
1989,2064,2036,2039,0146
2220,2056,2033,2039,0145
2014,2080,2053,2061,0144
1924,2069,2063,2082,0142
2194,2060,2025,2045,0141
2076,2051,2017,2039,0140
1884,2050,2025,2032,0139
2131,2058,2051,2053,0137
2177,2057,2039,2064,0136
1894,2053,2038,2045,0134
2049,2067,2061,2064,0133
2230,2076,2057,2068,0131
1951,2046,2015,2031,0129
1973,2062,2042,2065,0127
2210,2053,2032,2047,0124
2028,2056,2035,2050,0122
1904,2052,2047,2053,0120
2176,2065,2056,2061,0118
2119,2073,2055,2062,0116
1886,2063,2055,2062,0114
2126,2069,2044,2050,0112
2197,2067,2054,2054,0110
1892,2036,1999,2016,0109
2011,2016,2073,2072,0107
2246,2077,2123,2108,0106
1921,2007,1935,1937,0104
1963,2070,2094,2135,0103
2208,2062,2010,2042,0102
2054,2066,2035,2064,0101
1897,2061,2048,2066,0099
2155,2047,2014,2018,0098
2144,2064,2042,2056,0097
1876,2055,2041,2063,0095
2090,2057,2020,2030,0094
2202,2065,2037,2051,0092
1918,2065,2051,2054,0091
2006,2057,2043,2047,0089
2240,2074,2062,2066,0088
1999,2069,2051,2061,0086
1948,2082,2075,2083,0085
2208,2046,2030,2036,0083
2060,2041,2035,2037,0082
1895,2068,2051,2069,0081
2166,2075,2056,2078,0080
2167,2073,2031,2060,0078
1888,2054,2001,2036,0077
2052,2049,1985,2035,0077
2224,2073,1982,2055,0076
1926,2051,1993,2042,0075
1967,2045,2023,2048,0075
2230,2057,2090,2048,0074
2003,2058,2126,2058,0074
1906,2049,2085,2041,0074
2204,2063,2035,2048,0074
2099,2048,1986,2059,0074
1899,2073,2037,2064,0074
2138,2064,2142,2068,0074
2185,2071,2125,2064,0074
1894,2059,2120,2068,0075
2045,2061,2091,2073,0075
2216,2066,2107,2056,0075
1953,2067,2084,2049,0076
1966,2061,2070,2070,0077
2249,2064,1977,2052,0078
2051,2066,1932,2037,0079
1910,2060,1890,2046,0081
2200,2058,1997,2069,0083
2120,2061,2071,2073,0085
1874,2061,2098,2081,0088
2115,2063,2083,2061,0091
2186,2061,2045,2066,0095
1903,2057,2072,2075,0098
2044,2062,2092,2057,0103
2233,2073,2184,2076,0107
1966,2064,2157,2064,0112
1949,2054,2044,2043,0117
2226,2063,1915,2024,0123
2054,2064,1867,2031,0129
1888,2056,1959,2046,0136
2176,2068,2108,2065,0143
2151,2085,2215,2110,0150
1918,2097,2119,2088,0158
2146,2115,1949,2067,0165
2252,2108,1930,2075,0173
1954,2095,2020,2071,0181
2001,2057,2149,2076,0190
2198,2034,2066,2015,0198
1964,2027,2040,2029,0206
1904,2025,1883,2008,0215
2181,2025,1979,2023,0223
2050,2026,2133,2077,0232
1873,2036,2174,2042,0240
2130,2050,2039,2047,0249
2134,2045,1924,2016,0257
1911,2070,1997,2080,0266
2067,2065,2116,2092,0275
2214,2060,2063,2046,0283
1948,2046,1865,1978,0292
1968,2037,1847,2001,0301
2193,2045,2073,2082,0310
1998,2052,2250,2112,0319
1905,2043,2141,2063,0328
2172,2058,1992,2031,0338
2058,2057,1944,2048,0347
1920,2076,2189,2108,0357
2186,2094,2231,2100,0367
2205,2085,2166,2081,0376
1960,2074,1939,2042,0387
2059,2053,1814,1994,0397
2249,2095,1929,2069,0407
2022,2109,2094,2101,0417
1983,2086,2113,2092,0428
2200,2059,2052,2041,0438
1973,2013,2100,2036,0448
1843,2005,2131,2007,0459
2135,2031,2184,2061,0469
2092,2036,1972,2015,0480
1856,2035,1880,1987,0491
2096,2045,1931,2030,0502
2199,2048,1968,2038,0513
1896,2055,1914,2024,0524
2017,2055,2023,2077,0535
2219,2059,2099,2081,0545
1968,2063,2153,2057,0556
1948,2078,2164,2095,0567
2248,2099,2018,2079,0578
2094,2112,2060,2142,0588
1919,2106,2035,2067,0599
2187,2110,2009,2043,0609
2187,2069,2028,2041,0620
2020,2047,2029,2028,0630
2225,2034,2152,2027,0641
2259,2038,2194,2096,0651
1901,2040,1999,2027,0662
1856,2031,1786,1999,0672
2110,2053,1820,1997,0683
1923,2056,2124,2100,0693
1864,2059,2103,2112,0703
2135,2080,2190,2144,0713
2048,2077,2100,2047,0723
1854,2058,2114,2067,0733
2139,2046,2030,2020,0743
2137,2052,1979,2008,0753
1827,2048,2206,2092,0763
2054,2058,2202,2119,0773
2203,2056,2039,2081,0783
1925,2048,1780,1999,0793
1983,2043,1766,1983,0803
2227,2053,2044,2069,0813
2018,2057,2087,2037,0823
1921,2045,2015,2024,0833
2213,2061,1994,2001,0842
2144,2084,2090,2048,0852
1893,2092,2160,2056,0861
2151,2086,2097,2072,0871
2205,2071,1834,2089,0880
1908,2076,1911,2062,0890
2034,2052,2117,2084,0899
2251,2088,2351,2073,0908
1967,2073,2105,2029,0917
1973,2066,1866,1970,0926
2265,2067,2011,2061,0935
2115,2079,2282,2135,0944
1918,2076,2291,2133,0954
2241,2076,1919,2028,0963
2138,2048,1787,2035,0972
1861,2059,2069,2057,0981
2101,2060,2182,2124,0990
2193,2060,1908,2036,0999
1917,2049,1863,1989,1008
2030,2053,1996,2019,1017
2252,2067,2024,2004,1025
1963,2068,2150,2101,1034
1967,2081,1976,2084,1042
2230,2074,2002,2048,1050
2071,2079,2170,2127,1059
1883,2065,2124,2078,1067
2139,2056,2079,2094,1075
2139,2074,2037,2013,1082
1894,2060,2100,2036,1090
2099,2056,2141,2085,1098
2216,2061,2210,2120,1105
1895,2039,2099,2113,1113
1956,2030,2092,2088,1120
2215,2032,1862,1992,1128
1990,2027,1824,1940,1135
1918,2035,2010,2044,1142
2227,2054,2031,2034,1149
2104,2063,1951,2035,1156
1887,2044,1627,1976,1163
2109,2045,2026,2031,1170
2185,2111,2509,2196,1176
1905,2066,2290,2136,1183
2085,2062,1837,2023,1189
2264,2075,2087,2071,1196
1925,2079,2309,2078,1202
1963,2092,2427,2162,1209
2249,2061,1691,1932,1215
1991,2021,1687,1977,1222
1903,2076,2374,2220,1228
2213,2089,2233,2122,1234
2111,2050,1833,2010,1240
1879,2032,1731,1868,1247
2133,2050,2116,2068,1253
2213,2065,1869,2048,1259
1926,2065,1956,2062,1264
2050,2047,2301,2102,1270
2250,2090,2453,2125,1276
1964,2061,2187,2106,1281
1927,2029,1689,1924,1287
2211,2057,2023,2041,1293
1986,2070,2369,2131,1299
1847,2058,2145,2081,1304
2118,2021,1759,1961,1310
2101,2049,1958,2004,1316
1837,2073,2195,2112,1322
2064,2063,2114,2078,1328
2182,2063,1842,1996,1333
1874,2039,1761,1972,1339
1993,2057,1788,2025,1344
2216,2036,1852,1980,1349
1983,2057,2224,2070,1354
1951,2078,2365,2113,1358
2212,2080,2297,2131,1363
2103,2088,2028,2090,1367
1901,2028,1818,1951,1371
2173,2055,1945,2058,1375
2169,2067,2192,2112,1378
1901,2062,2143,2076,1382
2076,2042,2040,2019,1385
2267,2091,2063,2049,1388
1932,2069,2064,2069,1391
1999,2051,2183,2102,1394
2257,2046,2019,2045,1397
1999,2019,1758,1957,1399
1912,2050,1931,2026,1401
2229,2061,2094,2063,1404
2109,2074,2115,2075,1405
1871,2036,1995,2030,1407
2137,2023,1913,2022,1408
2152,2025,1999,2003,1409
1888,2042,2063,2029,1410
2056,2067,2183,2096,1411
2224,2062,1988,2067,1411
1943,2068,2019,2034,1411
1987,2078,2078,2101,1411
2275,2098,2125,2122,1411
2045,2090,2094,2098,1411
1911,2078,2142,2107,1410
2212,2073,2038,2066,1410
2149,2092,2057,2085,1409
1905,2087,2049,2071,1409
2168,2086,2079,2048,1408
2205,2060,2041,2049,1408
1867,2041,1943,2018,1407
2056,2041,2009,2020,1406
2256,2060,2049,2061,1405
1933,2058,2075,2044,1404
2046,2046,2034,2028,1403
2238,2057,2024,2036,1401
2074,2058,1974,2031,1400
1838,2031,1981,2029,1398
2138,2053,2092,2060,1396
2082,2048,2035,2019,1394
1861,2063,2078,2053,1391
2145,2070,2038,2073,1388
2172,2053,1923,2013,1385
1901,2071,2138,2129,1381
2003,2069,2063,2035,1378
2255,2102,2226,2132,1374
1983,2091,2094,2073,1369
1922,2061,1951,2008,1365
2211,2053,2031,2063,1360
2047,2044,2077,2043,1356
1865,2046,2071,2050,1351
2164,2058,2040,2049,1347
2184,2064,2029,2055,1342
1879,2056,2019,2049,1337
2093,2058,2025,2051,1332
2233,2063,2041,2065,1327
1914,2047,1985,2028,1322
1969,2047,2004,2051,1316
2270,2060,2058,2056,1310
2031,2065,1953,2052,1304
1938,2061,1949,2053,1297
2224,2063,2005,2067,1290
2083,2067,2096,2056,1283
1852,2084,2300,2143,1276
2108,2079,2245,2113,1269
2140,2068,2125,2067,1261
1830,2048,2059,2043,1254
2028,2053,1983,2022,1246
2213,2069,2015,2072,1239
1931,2054,2005,2047,1232
1936,2046,1989,2025,1225
2265,2080,2016,2048,1217
2039,2076,2040,2068,1210
1938,2049,2020,2056,1203
2260,2051,2015,2044,1195
2138,2052,2016,2039,1187
1894,2051,2015,2048,1179
2129,2045,1943,1999,1171
2185,2050,1846,2020,1162
1894,2067,2066,2104,1153
2023,2064,2273,2130,1144
2235,2054,2194,2069,1134
1934,2033,2003,2029,1125
1951,2037,1919,2017,1115
2240,2050,2089,2079,1106
2040,2057,2227,2067,1097
1873,2050,2137,2054,1088
2176,2049,2018,2034,1079
2090,2045,1987,2031,1071
1867,2051,1988,2023,1063
2081,2040,1977,2030,1055
2220,2062,1994,2043,1047
1921,2050,2009,2039,1040
2012,2055,2015,2039,1032
2227,2071,2035,2063,1025
1966,2074,2041,2061,1017
1932,2078,2045,2069,1009
2237,2080,2042,2051,1002
2073,2074,2005,2048,0993
1865,2055,2046,2061,0985
2168,2058,2072,2096,0976
2137,2060,2058,2084,0967
1867,2064,2086,2094,0958
2079,2063,2131,2062,0948
2222,2072,2136,2069,0939
1937,2059,2062,2056,0929
1986,2053,2066,2053,0920
2224,2040,2058,2039,0911
1985,2047,2069,2041,0901
1877,2039,1984,2028,0892
2175,2049,2000,2028,0883
2130,2051,2041,2049,0874
1908,2049,2039,2039,0865
2201,2057,1996,2045,0856
2218,2052,1979,2044,0848
1901,2056,1998,2043,0839
2064,2063,1989,2058,0829
2244,2071,1962,2062,0820
1965,2081,2013,2063,0811
1989,2094,2088,2074,0802
2258,2100,2220,2136,0792
2056,2105,2209,2136,0783
1908,2096,2132,2104,0773
2217,2093,2084,2109,0764
2126,2096,2120,2085,0754
1883,2071,2085,2057,0745
2106,2044,2063,2035,0736
2146,2025,1988,2006,0727
1830,2013,1956,1995,0719
1993,2016,1959,1997,0710
2195,2031,1953,2017,0702
1953,2037,1963,2023,0694
1945,2047,2018,2044,0686
2227,2062,2060,2066,0678
2047,2052,2012,2041,0670
1875,2039,1934,2025,0661
2208,2049,1986,2059,0653
2143,2047,2082,2064,0645
1879,2050,2117,2065,0637
2099,2053,2045,2041,0629
2201,2064,2009,2061,0620
1923,2069,2110,2079,0612
2014,2049,2150,2063,0604
2235,2047,2110,2048,0596
1973,2048,2000,2028,0588
1929,2050,1972,2057,0580
2185,2059,2011,2059,0572
2041,2070,2060,2063,0564
1825,2061,2049,2060,0556
2135,2072,2057,2074,0548
2154,2072,2037,2069,0540
1911,2062,2022,2057,0532
2104,2062,2058,2059,0524
2213,2057,2038,2053,0516
1921,2040,2002,2045,0508
2027,2075,1996,2078,0500
2240,2063,1953,2059,0492
2018,2066,2046,2069,0483
1929,2057,2133,2079,0475
2171,2047,2133,2065,0467
2081,2066,2089,2053,0459
1877,2059,1984,2051,0451
2130,2053,2049,2056,0443
2173,2058,2104,2059,0435
1893,2065,2142,2068,0428
2052,2067,2071,2057,0420
2230,2063,2017,2061,0413
1975,2071,2013,2063,0405
1979,2062,2031,2058,0398
2263,2082,2034,2072,0391
2079,2094,2044,2079,0384
1926,2051,2029,2060,0377
2164,2044,2017,2043,0371
2183,2089,2068,2088,0364
1900,2058,2038,2063,0357
2152,2084,2054,2069,0351
2194,2049,2030,2044,0344
1905,2057,2049,2055,0338
2032,2074,2064,2064,0332
2223,2045,2028,2042,0326
1966,2048,2036,2041,0320
1950,2065,2055,2060,0314
2227,2068,2063,2070,0308
2028,2031,2021,2027,0302
1895,2064,2036,2045,0296
2147,2063,2041,2058,0290
2162,2093,2064,2078,0285
1905,2068,2054,2066,0279
2094,2059,2040,2051,0274
2191,2060,2051,2064,0268
1907,2046,2026,2033,0263
1992,2042,2025,2043,0257
2209,2056,2043,2058,0252
1995,2068,2048,2066,0247
1906,2037,2043,2053,0242
2168,2023,1989,2020,0237
2057,2043,2024,2054,0232
1885,2064,2020,2031,0228
2202,2125,2122,2130,0223
2163,2068,2078,2089,0219
1912,2082,2076,2093,0214
2044,2046,2021,2035,0210
2225,2092,2076,2087,0206
1947,2065,2060,2069,0202
1985,2066,2053,2066,0198
2229,2065,2049,2056,0195
1996,2047,2032,2040,0191
1908,2049,2038,2047,0188
2201,2058,2054,2054,0184
2092,2058,2045,2043,0181
1886,2056,2059,2068,0178
2129,2061,2061,2065,0175
2182,2078,2059,2065,0173
1900,2057,2045,2051,0170
2033,2049,2030,2042,0168
2221,2068,2039,2049,0166
1958,2064,2049,2062,0164
1967,2061,2042,2056,0162
2216,2059,2033,2047,0160
2038,2067,2034,2053,0158
1903,2057,2036,2047,0156
2172,2058,2043,2053,0154
2113,2063,2049,2063,0152
1883,2054,2026,2028,0151
2112,2059,2059,2060,0149
2216,2082,2050,2068,0147
1929,2093,2057,2082,0145
2026,2067,2032,2059,0143
2222,2051,2045,2056,0141
1974,2062,2048,2053,0139
1939,2052,2042,2036,0137
2228,2065,2046,2068,0136
2048,2060,2045,2057,0133
1890,2050,2045,2064,0131
2154,2046,2034,2056,0129
2122,2048,2023,2035,0127
1897,2067,2063,2062,0125
2083,2052,2048,2041,0123
2206,2075,2072,2072,0121
1929,2060,2049,2049,0119
1999,2060,2047,2051,0118
2241,2080,2061,2062,0116
1987,2049,2048,2052,0114
1913,2053,2039,2039,0113
2208,2067,2049,2060,0111
2090,2071,2048,2056,0110
1888,2051,2038,2051,0108
2165,2072,2060,2069,0107
2151,2064,2058,2056,0106
1900,2073,2051,2060,0105
2058,2050,2032,2042,0104
2207,2060,2046,2053,0104
1909,2045,2023,2041,0103
1958,2045,2003,2031,0103
2221,2060,1982,2036,0102
2001,2054,1920,2032,0102
1922,2059,1953,2052,0102
2198,2063,2058,2077,0102
2102,2068,2160,2080,0102
1886,2059,2157,2057,0102
2136,2063,2086,2052,0102
2171,2057,2065,2056,0102
1902,2061,2036,2072,0102
2041,2058,2111,2080,0102
2226,2069,2179,2100,0102
1959,2060,2080,2056,0103
1949,2033,1959,2003,0103
2229,2064,1991,2058,0104
2032,2062,1994,2069,0105
1900,2060,2062,2074,0107
2184,2059,2024,2053,0108
2117,2055,2043,2080,0110
1882,2057,2119,2049,0112
2108,2055,2114,2087,0115
2195,2058,2019,2047,0118
1912,2053,1991,2042,0122
2021,2055,2048,2037,0126
2225,2071,2120,2064,0130
1970,2060,2071,2048,0135
1964,2065,1924,2014,0140
2224,2061,1891,2025,0146
2066,2066,1961,2028,0151
1879,2054,2109,2079,0157
2165,2068,2128,2068,0163
2151,2072,2126,2090,0170
1893,2080,1981,2048,0176
2084,2065,1972,2073,0183
2215,2082,2092,2083,0190
1944,2082,2160,2081,0197
2034,2092,2191,2090,0204
2264,2076,2043,2051,0212
2004,2068,2054,2067,0219
1941,2074,2015,2058,0227
2200,2058,2004,2046,0235
2078,2057,1929,2057,0243
1888,2055,1985,2039,0252
2123,2046,2097,2087,0260
2146,2051,1992,2036,0269
1896,2046,2010,2031,0278
2036,2045,2095,2016,0287
2206,2073,2180,2100,0296
1959,2078,2070,2058,0305
1997,2076,1886,2031,0315
2210,2053,1816,2014,0325
2009,2047,2001,2052,0335
1890,2023,1998,2013,0345
2160,2026,2105,2031,0355
2095,2037,2179,2078,0366
1884,2050,2185,2068,0376
2127,2076,2171,2094,0387
2190,2079,2071,2045,0398
1906,2059,2041,2075,0409
2051,2078,2087,2081,0420
2222,2073,2017,2054,0431
1939,2044,1918,2000,0442
1951,2024,1769,1964,0453
2207,2046,1828,1990,0465
2075,2101,1970,2096,0476
1910,2064,2040,2096,0487
2206,2074,2184,2119,0498
2107,2050,2177,2057,0509
1876,2037,2163,2054,0520
2098,2054,2019,2012,0530
2177,2049,2029,2013,0541
1897,2047,2034,2021,0552
1997,2055,2192,2102,0563
2223,2078,2149,2131,0574
1978,2095,2027,2077,0585
1938,2095,1935,2022,0596
2237,2096,1992,2074,0607
2075,2101,2003,2064,0618
1876,2064,1963,2041,0629
2199,2055,1880,1999,0640
2302,2027,1953,1999,0651
2048,2025,2047,2032,0662
2193,2041,2184,2094,0672
2213,2058,2116,2075,0683
1809,2044,2010,2076,0693
1868,2047,2023,2048,0703
2142,2054,2091,2105,0714
1928,2058,2100,2080,0724
1842,2058,2118,2097,0734
2157,2069,2054,2036,0745
2061,2070,2038,2040,0755
1865,2054,2050,2047,0765
2121,2065,2151,2103,0776
2162,2071,2156,2085,0786
1894,2063,2025,2057,0796
2061,2052,1922,2053,0807
2256,2060,2087,2088,0817
1935,2061,2085,2081,0827
1989,2051,1887,1985,0838
2232,2058,1919,1989,0848
2007,2072,2121,2126,0858
1905,2067,1990,2064,0868
2203,2080,1846,2013,0879
2096,2064,2162,2112,0888
1871,2086,2447,2185,0899
2116,2082,2345,2141,0909
2178,2072,1930,2020,0919
1901,2058,1907,1943,0929
2022,2049,2103,2025,0939
2227,2065,1963,2035,0949
1964,2067,1717,1957,0958
1965,2063,1864,1990,0968
2234,2072,2180,2077,0977
2045,2072,2261,2107,0987
1915,2065,1988,2053,0995
2241,2097,1749,2049,1004
2149,2062,1936,2023,1013
1908,2074,2310,2105,1021
2148,2068,2299,2143,1029
2228,2072,2109,2065,1038
1943,2069,2032,2088,1046
2043,2055,2026,2052,1053
2259,2079,2080,2065,1061
2003,2091,1983,2072,1069
1944,2063,1943,2040,1076
2237,2078,1999,2063,1084
2062,2053,1814,1988,1091
1844,2024,2127,2057,1098
2111,2010,2310,2081,1105
2122,2040,2225,2050,1111
1846,2037,1932,2027,1118
2067,2027,1564,1953,1124
2206,2056,2127,2125,1131
1927,2060,2438,2128,1137
2000,2070,2344,2130,1144
2241,2044,1940,2003,1150
1983,2036,1989,2048,1156
1909,2033,2012,2052,1162
2199,2049,2058,2032,1168
2081,2032,1620,1873,1174
1919,2045,1968,2048,1180
2139,2088,2509,2270,1186
2198,2091,2151,2145,1192
1901,2067,1863,2053,1197
2048,2045,1854,2007,1203
2227,2075,2096,2080,1208
1934,2069,2314,2085,1214
1976,2049,1832,1970,1219
2185,2017,1820,2031,1224
1993,2048,2209,2067,1230
1883,2037,2315,2084,1235
2238,2087,2218,2138,1241
2087,2042,1837,1997,1246
1895,2078,1971,2039,1252
2132,2057,2211,2062,1257
2158,2051,2149,2029,1262
1866,2058,1982,2030,1268
2056,2055,1916,2059,1273
2252,2088,2249,2161,1279
1995,2064,1677,1978,1284
1948,2036,1592,1973,1289
2215,2091,2437,2179,1294
2029,2096,2543,2211,1299
1872,2066,2256,2094,1304
2154,2031,1777,1978,1309
2077,2028,1799,1936,1314
1831,2052,2143,2013,1319
2085,2060,2125,2087,1323
2197,2061,1800,2009,1328
1869,2031,1665,1961,1332
2000,2077,2257,2154,1336
2202,2064,2233,2076,1341
1969,2091,2307,2152,1345
1935,2055,1907,2013,1349
2217,2029,1780,1975,1352
2056,2039,2069,2012,1356
1885,2041,2125,2032,1360
2194,2079,1983,2021,1363
2162,2072,1970,2062,1367
1917,2072,2119,2070,1370
2096,2041,1979,2009,1372
2226,2055,2001,2035,1375
1935,2041,1980,2044,1377
1995,2047,2003,2027,1379
2254,2053,2141,2085,1381
2018,2067,1932,2017,1383
1916,2037,1880,2010,1384
2239,2066,2162,2081,1385
2087,2066,2188,2116,1386
1893,2066,2254,2133,1386
2160,2060,1973,2039,1386
2185,2080,1930,2026,1387
1882,2079,2070,2045,1387
2067,2076,2048,2071,1387
2231,2067,1950,2037,1386
1937,2060,2045,2061,1386
1966,2043,2093,2063,1386
2240,2050,2089,2064,1386
2013,2055,2055,2047,1385
1913,2069,2037,2060,1385
2214,2064,2016,2062,1384
2124,2069,2048,2068,1383
1866,2060,2028,2051,1383
2121,2063,1983,2053,1382
2218,2082,2074,2087,1380
1897,2067,2045,2054,1379
2014,2045,1957,2016,1377
2251,2066,2077,2074,1376
1915,2050,2018,2036,1373
1987,2065,2129,2093,1371
2254,2063,2152,2105,1368
2053,2064,2019,2057,1365
1866,2060,2042,2057,1362
2185,2055,1943,2013,1358
2124,2060,1926,2022,1354
1881,2056,2099,2062,1350
2118,2076,2176,2104,1346
2220,2070,2172,2080,1341
1893,2049,2017,2040,1336
2009,2044,1976,2031,1332
2227,2046,2058,2024,1327
1987,2057,2091,2051,1322
1913,2063,2075,2060,1317
2266,2069,2033,2064,1312
2070,2061,1986,2043,1307
1875,2059,2051,2060,1301
2167,2051,2007,2036,1296
2140,2055,2002,2032,1290
1857,2074,2040,2060,1284
2050,2082,2076,2102,1277
2197,2091,2109,2123,1271
1913,2081,2110,2106,1264
1967,2062,1964,2053,1257
2249,2081,2005,2057,1249
1989,2070,1969,2027,1242
1881,2044,2133,2089,1234
2205,2063,2261,2114,1226
2088,2048,2172,2081,1218
1869,2059,2107,2065,1211
2145,2057,2020,2039,1203
2182,2036,1957,2023,1195
1855,2040,1974,2036,1188
2066,2032,1998,2027,1180
2278,2044,2024,2037,1173
1943,2036,2016,2013,1165
1977,2040,1997,2027,1158
2232,2041,1934,1991,1150
2003,2043,1947,2040,1142
1885,2053,2041,2072,1134
2222,2061,1967,2065,1126
2108,2077,2091,2086,1118
1880,2061,2210,2113,1109
2141,2072,2201,2074,1100
2204,2083,2197,2130,1092
1921,2092,2059,2084,1083
2048,2066,2075,2077,1075
2228,2054,2079,2063,1067
1925,2028,1991,2001,1059
1896,2033,1961,2007,1051
2201,2054,1993,2039,1043
2021,2063,2027,2041,1036
1855,2053,2003,2033,1029
2132,2055,1996,2039,1021
2107,2052,1963,2022,1014
1869,2053,2021,2056,1007
2081,2048,2064,2064,0999
2206,2052,2024,2029,0992
1897,2043,2035,2031,0984
2006,2060,2002,2049,0976
2257,2077,2093,2112,0968
2014,2079,2161,2111,0960
1953,2068,2169,2055,0952
2240,2068,2158,2071,0943
2101,2070,2067,2075,0935
1915,2069,2011,2058,0927
2236,2090,2041,2085,0920
2237,2096,2098,2091,0912
1933,2079,2084,2063,0904
2096,2060,2033,2044,0896
2208,2057,2014,2045,0889
1868,2041,2003,2035,0881
1986,2048,2001,2029,0873
2225,2045,2007,2040,0866
2015,2062,2017,2071,0858
1908,2060,1997,2070,0850
2209,2060,1982,2021,0842
2093,2057,2032,2045,0834
1875,2053,2050,2035,0826
2145,2054,2101,2088,0818
2171,2063,2130,2079,0810
1897,2056,2122,2079,0802
2049,2051,2061,2059,0794
2226,2052,2032,2041,0786
1936,2043,1991,2013,0778
1951,2058,2043,2042,0770
2229,2070,2054,2070,0763
2035,2059,2019,2052,0755
1884,2055,2019,2046,0748
2189,2054,2003,2042,0741
2107,2054,1997,2046,0734
1867,2053,2042,2053,0727
2106,2053,1980,2050,0720
2196,2062,1939,2036,0713
1885,2056,1927,2052,0706
2024,2052,2093,2049,0698
2224,2036,2180,2069,0691
1933,2033,2146,2051,0684
1924,2029,2050,2022,0676
2203,2044,2023,2038,0669
2034,2060,2011,2045,0661
1887,2046,2018,2050,0654
2195,2075,2048,2078,0646
2158,2078,2110,2074,0639
1893,2076,2093,2060,0632
2105,2068,2047,2048,0624
2220,2074,1996,2060,0617
1919,2070,2026,2066,0610
2035,2079,2031,2073,0602
2244,2069,2000,2052,0595
2005,2079,2008,2061,0588
1930,2054,2021,2048,0580
2194,2038,2056,2061,0572
2062,2048,2120,2085,0565
1859,2037,2109,2065,0557
2191,2061,2098,2062,0549
2193,2061,2039,2060,0542
1890,2076,2004,2071,0534
2043,2054,1994,2055,0527
2144,2050,2039,2043,0519
1850,2021,2028,2023,0512
1905,2038,2021,2031,0504
2214,2071,2070,2063,0497
2026,2067,2082,2074,0490
1937,2069,2099,2067,0483
2229,2057,2059,2059,0476
2130,2048,2020,2038,0469
1912,2046,2020,2040,0462
2148,2039,2009,2042,0455
2207,2069,2035,2073,0448
1901,2059,2022,2064,0442
2033,2048,1985,2030,0435
2211,2045,1992,2047,0428
1972,2074,2037,2071,0421
1985,2070,2081,2077,0414
2214,2041,2063,2053,0407
2064,2067,2076,2058,0401
1903,2055,2044,2058,0394
2183,2067,2035,2054,0387
2151,2067,1999,2066,0380
1887,2042,2017,2065,0373
2083,2034,2028,2046,0366
2187,2050,2083,2057,0360
1922,2061,2124,2070,0353
2044,2081,2103,2080,0346
2245,2088,2093,2086,0340
2003,2085,2068,2077,0333
1944,2049,2017,2041,0327
2187,2038,2010,2032,0321
2030,2038,2016,2041,0314
1872,2034,2019,2039,0308
2169,2065,2041,2065,0302
2124,2056,2029,2048,0296
1865,2038,2013,2033,0290
2079,2046,2025,2036,0285
2172,2039,2029,2048,0279
1941,2068,2053,2067,0273
2002,2061,2045,2058,0268
2209,2045,2037,2050,0263
1999,2062,2050,2060,0257
1906,2047,2031,2041,0252
2197,2056,2047,2047,0248
2083,2056,2062,2052,0243
1863,2025,2022,2038,0238
2134,2049,2037,2054,0234
2151,2051,2023,2049,0229
1869,2042,2011,2015,0225
2065,2073,2077,2106,0221
2231,2079,2058,2110,0217
1963,2083,2059,2089,0213
2007,2093,2041,2068,0209
2240,2083,2044,2057,0206
2031,2072,2067,2083,0202
1937,2074,2061,2073,0199
2226,2104,2089,2111,0195
2118,2083,2079,2085,0192
1874,2034,2027,2030,0189
2086,2022,1998,2006,0186
2136,2047,2035,2038,0183
1901,2063,2059,2060,0180
2047,2058,2039,2042,0178
2229,2078,2058,2059,0176
1953,2076,2056,2053,0173
1956,2059,2055,2048,0171
2229,2057,2045,2007,0169
2012,2040,2097,2107,0167
1921,2073,1999,2035,0165
2189,2074,2056,2096,0163
2124,2070,2028,2055,0161
1905,2066,2052,2061,0159
2099,2057,2044,2057,0157
2209,2065,2055,2072,0155
1926,2066,2054,2059,0153
2016,2053,2047,2051,0151
2219,2067,2046,2054,0148
1991,2069,2051,2056,0146
1942,2061,2043,2040,0144
2192,2047,2024,2031,0141
2046,2050,2030,2031,0139
1886,2029,2041,2033,0136
2171,2064,2029,2052,0134
2135,2069,2035,2071,0132
1886,2068,2040,2054,0130
2068,2037,2002,2039,0127
2208,2080,2019,2043,0125
1933,2068,2032,2062,0123
1997,2059,2039,2046,0120
2242,2078,2078,2091,0118
1996,2062,2049,2060,0115
1931,2062,2049,2065,0112
2219,2075,2056,2060,0109
2087,2068,2060,2059,0106
1898,2059,2058,2056,0103
2146,2073,2032,2044,0100
2136,2044,2023,2036,0097
1880,2044,2042,2041,0094
2048,2049,2042,2034,0092
2203,2063,2051,2048,0089
1928,2049,2029,2052,0087
1985,2071,2037,2060,0084
2215,2067,2048,2067,0082
2016,2057,2048,2061,0079
1940,2096,2068,2054,0077
2188,2053,2043,2039,0075
2100,2065,2052,2065,0073
1884,2047,2034,2049,0070
2130,2057,2039,2065,0068
2156,2052,2026,2054,0066
1923,2079,2054,2073,0065
2066,2074,2059,2066,0063
2233,2073,2056,2055,0061
1972,2073,2050,2062,0060
1965,2062,2025,2040,0059
2204,2048,1994,2033,0057
2025,2053,1986,2048,0056
1909,2066,2029,2059,0056
2180,2063,2055,2065,0055
2135,2066,2049,2067,0054
1893,2064,2053,2063,0054
2090,2039,2095,2055,0054
2216,2078,2142,2074,0054
1913,2061,2093,2047,0054
2024,2057,2013,2037,0054
2231,2067,2015,2063,0054
1983,2065,2041,2062,0055
1944,2062,2095,2068,0055
2217,2064,2074,2062,0056
2064,2071,2015,2044,0056
1888,2052,1997,2072,0057
2166,2056,2069,2063,0059
2147,2053,2116,2062,0060
1896,2056,1988,2024,0062
2087,2055,1865,2030,0064
2201,2057,1968,2036,0067
1917,2053,2109,2100,0070
1997,2064,2180,2096,0073
2212,2061,2091,2108,0076
2016,2066,2096,2083,0080
1935,2059,2161,2077,0084
2207,2070,2201,2072,0089
2095,2066,2145,2069,0094
1893,2056,2046,2026,0099
2148,2064,1974,2043,0105
2128,2054,1876,2016,0112
1894,2053,1824,2009,0118
2101,2060,1949,2048,0125
2232,2077,2080,2080,0132
1986,2073,2042,2060,0140
1981,2063,1977,2031,0147
2240,2079,2003,2064,0154
2036,2091,2201,2108,0162
1933,2082,2168,2101,0169
2244,2120,2069,2096,0177
2105,2068,1947,2052,0185
1897,2067,2101,2088,0192
2126,2052,2162,2061,0200
2159,2048,2080,2032,0208
1894,2057,1989,2046,0216
2028,2041,1968,2037,0224
2191,2046,2031,2070,0232
1942,2053,2077,2072,0240
1937,2040,1979,2034,0248
2193,2041,2006,2049,0256
2031,2042,2052,2044,0264
1872,2025,2025,2014,0273
2137,2032,2023,2027,0281
2130,2055,2032,2021,0290
1893,2059,2163,2077,0299
2121,2078,2193,2106,0308
2219,2072,2067,2067,0317
1931,2059,1910,2023,0326
2028,2073,1882,2033,0334
2273,2108,1978,2090,0343
2014,2086,2026,2054,0352
1947,2071,2054,2096,0361
2199,2053,2072,2048,0370
2039,2033,1997,2022,0378
1836,2013,1915,1968,0387
2103,2011,2077,2007,0395
2099,2006,2176,2059,0403
1871,2033,2092,2013,0412
2072,2046,2067,2051,0420
2212,2078,2040,2087,0429
1948,2075,2142,2116,0437
2007,2059,2045,2076,0446
2229,2063,1820,2029,0454
1950,2030,1700,1960,0463
1958,2044,1950,2023,0472
2236,2077,2312,2095,0480
2135,2099,2292,2126,0489
1977,2119,2057,2097,0498
2207,2082,2015,2082,0507
2258,2066,2244,2090,0516
1978,2064,2190,2061,0525
2080,2041,2016,2028,0534
2168,2069,1912,2054,0543
1880,2076,1968,2056,0553
1911,2057,1839,2003,0562
2187,2069,1801,2023,0572
1974,2065,2059,2053,0581
1835,2060,2415,2159,0591
2136,2071,2181,2066,0600
2082,2064,1785,1959,0609
1868,2066,1872,2002,0619
2089,2073,2093,2072,0628
2127,2079,2160,2084,0637
1864,2057,2005,2070,0647
2048,2043,1973,2054,0656
2231,2048,2167,2066,0665
1993,2049,2232,2106,0675
1984,2041,2120,2067,0684
2234,2052,1973,2030,0694
2048,2046,2089,2096,0703
1893,2045,2102,2093,0713
2165,2053,1973,2040,0723
2158,2076,1813,1990,0732
1881,2044,2017,2041,0742
2102,2055,2224,2110,0751
2213,2066,2123,2093,0760
1891,2061,1901,2014,0770
2029,2067,1918,2027,0779
2240,2084,2257,2129,0788
1998,2073,2187,2088,0797
1929,2057,1935,2015,0806
2209,2062,1892,2037,0815
2062,2064,1921,2039,0824
1874,2056,2205,2105,0833
2161,2058,2118,2064,0842
2157,2068,2056,2081,0850
1882,2057,2104,2089,0859
2123,2063,2073,2028,0868
2247,2069,2110,2029,0876
1937,2061,2139,2062,0885
2009,2067,1960,2075,0893
2237,2077,1819,2039,0902
2007,2081,2063,2050,0910
