2236 2044 2047 2050 0
2041 2097 2064 2067 0
1889 2050 2038 2046 0
2205 2060 2040 2050 0
2111 2080 2046 2048 0
1861 2051 2048 2088 0
2132 2057 2046 2036 0
2186 2066 2003 2017 0
1893 2073 2051 2053 0
2054 2075 2056 2048 0
2216 2051 2028 2050 0
1954 2069 2056 2052 0
1974 2084 2069 2099 0
2223 2073 2068 2080 0
2050 2077 2074 2089 0
1917 2061 2054 2058 0
2186 2061 2052 2062 0
2086 2031 2028 2033 0
1895 2060 2048 2052 0
2135 2069 2042 2049 0
2170 2055 2041 2072 0
1930 2066 2056 2059 0
2031 2069 2070 2070 0
2205 2063 2059 2045 0
1990 2068 2067 2080 0
1962 2071 2053 2109 0
2222 2081 2053 2078 0
2047 2052 2031 2044 0
1904 2049 2024 2041 0
2139 2040 2044 2046 0
2130 2061 2045 2074 0
1896 2047 2036 2045 0
2070 2035 2027 2023 0
2193 2072 2059 2072 0
1936 2069 2038 2048 0
2010 2040 2034 2031 0
2217 2053 1992 1997 0
1993 2057 2094 2095 0
1958 2078 2052 2063 0
2195 2057 2014 2021 0
2058 2054 2042 2044 0
1931 2069 2049 2062 0
2187 2102 2067 2099 0
2151 2066 2047 2042 0
1920 2058 2064 2067 0
2069 2050 2032 2055 0
2196 2059 2043 2069 0
1933 2049 2025 2045 0
1991 2046 2022 2009 0
2211 2072 2083 2086 0
2009 2060 2033 2070 0
1939 2061 2059 2058 0
2180 2055 2021 2022 0
2089 2069 2048 2077 0
1893 2050 2020 2005 0
2133 2073 2070 2112 0
2180 2064 2003 2021 0
1925 2070 2086 2083 0
2028 2033 2019 2014 0
2205 2062 2061 2050 0
1948 2055 2065 2078 0
2009 2099 2054 2072 0
2211 2060 2057 2057 0
2015 2036 2021 2039 0
1934 2068 2040 2045 0
2185 2078 2066 2084 0
2122 2072 2046 2047 0
1884 2034 2030 2049 0
2123 2077 2052 2060 0
2161 2052 2041 2040 0
1915 2046 1965 1963 0
2032 2051 2101 2145 0
2205 2064 2041 2047 0
1969 2072 2071 2095 0
1954 2053 2017 2030 0
2186 2043 2031 2050 0
2024 2047 2063 2083 0
1904 2051 2025 2035 0
2159 2058 2042 2046 0
2150 2076 2057 2069 0
1901 2050 2064 2060 0
2078 2052 2036 2045 0
2209 2081 2068 2068 0
1943 2074 2063 2076 0
2021 2080 2051 2047 0
2207 2062 2019 2022 0
1992 2058 2073 2093 0
1944 2056 2068 2088 0
2188 2051 2032 2042 0
2080 2066 2045 2056 0
1884 2031 2009 2031 0
2140 2053 2031 2076 0
2143 2067 2054 2055 0
1908 2048 2049 2045 0
2054 2049 2044 2053 0
2187 2073 2035 2036 0
1936 2062 2060 2079 0
2030 2089 2057 2060 0
2224 2069 2045 2056 0
2041 2087 2065 2067 0
1946 2063 2039 2025 0
2189 2054 2078 2103 0
2080 2041 2024 2027 0
1915 2063 1971 2031 0
2122 2058 2019 2036 0
2145 2061 2039 2045 0
1893 2031 2044 2036 0
2082 2091 2089 2106 0
2206 2073 2056 2086 0
1963 2049 2035 2048 0
1945 2026 2022 2020 0
2185 2060 2042 2048 0
2046 2071 2061 2078 0
1936 2059 2039 2053 0
2161 2052 2043 2056 0
2107 2060 2045 2061 0
1894 2046 2030 2039 0
2089 2053 2037 2042 0
2199 2081 2073 2084 0
1920 2049 2029 2024 0
2031 2062 2050 2064 0
2201 2049 2044 2047 0
1991 2062 2027 2036 0
1949 2049 2061 2061 0
2201 2071 1989 2047 0
2074 2080 2067 2085 0
1920 2063 2035 2048 0
2153 2063 2048 2047 0
2118 2059 2064 2066 0
1955 2094 2070 2076 0
2076 2051 2031 2044 0
2154 2036 2019 2027 0
1960 2073 2098 2116 0
2002 2053 2030 2043 0
2198 2065 2037 2056 0
2004 2069 2045 2065 0
1943 2039 2027 2018 0
2186 2065 2093 2090 0
2084 2072 2051 2063 0
1883 2025 2014 2036 0
2132 2051 2022 1993 0
2137 2069 2152 2163 0
1911 2056 2031 2040 0
2064 2064 2040 2083 0
2147 2018 1996 1999 0
1980 2087 2069 2067 0
1988 2062 2052 2060 0
2196 2048 2059 2079 0
2013 2045 2027 2028 0
1923 2041 2023 2001 0
2194 2081 2100 2132 0
2105 2080 2036 2064 0
1909 2060 2028 2062 0
2114 2050 2033 2045 0
2170 2070 2055 2057 0
1933 2061 2057 2056 0
2032 2039 2032 2029 0
2214 2071 2046 2061 0
1971 2061 2055 2081 0
1969 2059 2047 2068 0
2172 2033 2023 2006 0
2055 2074 2025 2039 0
1891 2051 2062 2096 0
2187 2075 2069 2092 0
2101 2033 1993 1994 0
1909 2055 2033 2064 0
2100 2064 2033 2066 0
2190 2073 2054 2079 0
1876 2020 1999 2009 0
2053 2081 2064 2060 0
2217 2075 2056 2063 0
1996 2065 2048 2053 0
1976 2070 2058 2060 0
2186 2059 2048 2055 0
2076 2079 2060 2070 0
1916 2049 2038 2047 0
2155 2062 2046 2055 0
2127 2060 2045 2061 0
1932 2077 2053 2058 0
2089 2060 2021 2030 0
2173 2044 2062 2067 0
1964 2072 2072 2045 0
2023 2073 2058 2095 0
2210 2072 2057 2072 0
2008 2047 2031 2052 0
1918 2023 2029 2036 0
2191 2063 2052 2064 0
2102 2092 2073 2093 0
1918 2059 2042 2059 0
2117 2017 2009 2009 0
2164 2071 2048 2072 0
1909 2069 2036 2053 0
2082 2064 2056 2067 0
2198 2046 2026 2034 0
1930 2052 2037 2033 0
1989 2065 2067 2082 0
2224 2058 2042 2047 0
2021 2056 2037 2048 0
1935 2068 2031 2074 0
2186 2066 2063 2096 0
2096 2059 2030 2050 0
1917 2073 2043 2054 0
2133 2076 2061 2065 0
2156 2059 2016 2043 0
1905 2073 2051 2061 0
2055 2060 2031 2053 0
2207 2066 2048 2057 0
1953 2046 2037 2043 0
1967 2053 2041 2042 0
2202 2060 2040 2053 0
2040 2068 2053 2063 1
1925 2063 2049 2060 1
2157 2049 2034 2053 1
2114 2067 2045 2057 1
1886 2043 2037 2048 1
2137 2082 2065 2078 1
2171 2048 2046 2054 1
1926 2060 2049 2056 1
2019 2048 2035 2046 1
2201 2060 2054 2070 1
1973 2056 2035 2043 1
1944 2050 2037 2052 1
2209 2063 2041 2054 1
2035 2041 2029 2037 1
1927 2083 2055 2061 1
2150 2053 2048 2059 1
2151 2068 2048 2060 1
1905 2049 2048 2063 1
2084 2062 2050 2066 1
2189 2065 2045 2062 1
1946 2063 2042 2061 2
1997 2043 2034 2046 2
2199 2057 2038 2054 2
2003 2057 2045 2054 2
1909 2042 2015 2026 2
2220 2083 2057 2065 2
2075 2061 2048 2056 3
1903 2055 2034 2047 3
2139 2061 2043 2054 3
2111 2027 2025 2041 3
1907 2065 2042 2053 3
2063 2052 2039 2055 3
2208 2072 2057 2060 4
1947 2057 2047 2053 4
1974 2047 2042 2046 4
2185 2050 2028 2036 4
2012 2053 2037 2045 4
1912 2033 2021 2033 4
2153 2038 2027 2041 5
2051 2025 2009 2024 5
1879 2035 2019 2028 5
2103 2050 2034 2053 5
2146 2045 2032 2043 5
1920 2057 2046 2056 5
2056 2068 2053 2064 6
2224 2082 2067 2075 6
1970 2054 2048 2059 6
2001 2095 2061 2075 6
2224 2082 2054 2071 6
2060 2081 2064 2073 6
1936 2062 2057 2061 6
2179 2067 2058 2061 6
2109 2048 2038 2045 6
1855 2012 1995 2012 6
2054 2008 2015 2012 6
2123 2012 2002 2008 6
1924 2059 2032 2043 6
1982 2021 2012 2027 6
2203 2056 2031 2045 6
1946 2027 2012 2024 6
1900 2011 1992 2009 6
2148 2007 1992 2004 6
2019 2029 2002 2018 6
1910 2062 2039 2053 6
2169 2077 2063 2073 6
2183 2103 2095 2102 6
1942 2081 2092 2101 6
2144 2125 2116 2129 6
2265 2136 2127 2132 6
2016 2130 2114 2120 6
2085 2138 2120 2128 6
2263 2123 2104 2113 6
2048 2119 2091 2120 6
1994 2100 2092 2109 6
2233 2108 2082 2105 7
2132 2117 2092 2110 7
1948 2094 2096 2091 7
2162 2088 2070 2085 7
2169 2087 2073 2082 7
1927 2073 2067 2069 7
2085 2083 2076 2069 7
2205 2072 2069 2069 7
1965 2075 2057 2063 7
1998 2073 2058 2070 7
2231 2085 2071 2077 7
2035 2074 2060 2077 7
1912 2062 2035 2056 7
2205 2082 2061 2073 7
2094 2065 2045 2063 7
1911 2068 2050 2060 7
2110 2051 2038 2056 7
2163 2062 2039 2055 7
1918 2065 2056 2065 7
2041 2055 2047 2055 7
2217 2072 2052 2070 8
1965 2048 2031 2048 8
1963 2048 2032 2043 8
2187 2047 2027 2036 8
2005 2025 2008 2015 8
1856 1991 1975 1989 8
2093 1991 1967 1978 8
2021 1977 1954 1967 8
1807 1968 1951 1965 8
2015 1976 1953 1964 8
2087 1966 1956 1974 8
1848 1992 1969 1986 8
1958 1998 1986 2002 8
2187 2040 2020 2036 8
1956 2038 2028 2041 7
1945 2053 2039 2059 7
2204 2080 2046 2057 7
2075 2071 2061 2075 7
1916 2065 2040 2055 7
2159 2060 2048 2060 7
2102 2035 2023 2032 7
1877 2034 2020 2026 7
2061 2047 2023 2028 7
2162 2038 2029 2035 7
1923 2048 2034 2040 7
1979 2044 2038 2045 7
2226 2070 2066 2076 7
2039 2097 2081 2093 7
1978 2092 2085 2098 7
2240 2110 2105 2109 7
2121 2106 2095 2102 7
1949 2103 2091 2099 7
2173 2097 2085 2095 7
2202 2113 2093 2102 7
1947 2102 2087 2090 7
2103 2100 2082 2093 7
2280 2123 2108 2116 7
1993 2097 2087 2095 7
2017 2096 2080 2094 7
2276 2121 2100 2104 7
2081 2127 2105 2120 7
2009 2131 2115 2122 7
2266 2141 2122 2130 7
2189 2155 2133 2138 7
1983 2134 2119 2130 7
2182 2104 2098 2104 7
2198 2092 2071 2079 7
1914 2060 2041 2055 7
2014 2048 2021 2030 7
2182 2041 2022 2028 7
1910 2010 1983 1997 7
1905 2012 1985 1989 7
2149 2013 1973 1996 7
1963 1991 1952 1983 7
1852 1982 1945 1973 7
2106 1998 1962 1994 7
2074 2017 1997 2022 7
1855 2016 2018 2026 7
2097 2053 2058 2045 7
2160 2038 2045 2041 7
1935 2074 2066 2066 7
2036 2065 2059 2071 8
2223 2074 2070 2083 8
2008 2094 2077 2083 8
2002 2105 2083 2098 8
2255 2100 2091 2107 8
2123 2125 2107 2120 8
1947 2113 2103 2111 8
2195 2092 2078 2096 8
2138 2061 2046 2061 8
1897 2063 2033 2049 8
2082 2064 2034 2051 8
2193 2066 2029 2048 8
1920 2043 2014 2031 8
1977 2044 2021 2032 8
2205 2051 2025 2039 8
1917 1984 1971 1977 8
1821 1945 1931 1941 8
2061 1924 1912 1937 8
1972 1957 1921 1953 8
1805 1975 1938 1977 8
2077 1997 1962 1989 8
2085 1994 1992 1995 8
1824 1985 2010 1994 8
2023 2017 2032 2015 8
2184 2035 2030 2030 8
1933 2049 2033 2034 8
1948 2031 2028 2047 8
2213 2054 2041 2051 8
2015 2059 2040 2053 8
1926 2054 2033 2062 8
2203 2078 2046 2076 8
2177 2116 2073 2093 8
1911 2075 2029 2066 8
2138 2079 2039 2079 8
2206 2080 2067 2089 8
1911 2051 2063 2063 8
2052 2076 2091 2083 8
2247 2083 2123 2103 8
1983 2084 2116 2088 8
1976 2072 2106 2083 8
2237 2087 2074 2079 8
2072 2092 2045 2080 8
1936 2081 2023 2061 8
2200 2080 2024 2067 8
2134 2080 2005 2055 9
1912 2077 2008 2068 9
2109 2061 2054 2065 9
2203 2081 2129 2081 9
1917 2068 2143 2081 9
2028 2072 2079 2060 9
2242 2074 2050 2073 9
1989 2066 2017 2059 9
1963 2077 2063 2081 9
2220 2071 2030 2052 9
2067 2065 2076 2069 9
1916 2074 2088 2064 9
2150 2060 2079 2066 9
2135 2065 2047 2058 10
1894 2064 2015 2048 10
2101 2062 2020 2070 10
2204 2068 1996 2068 10
1921 2051 1933 2053 10
2024 2065 2055 2081 10
2221 2066 2155 2088 10
2031 2085 2219 2089 11
1942 2051 2097 2043 11
2195 2057 2042 2039 11
2077 2066 2054 2047 11
1888 2052 2049 2064 11
2141 2056 2017 2037 12
2164 2070 2009 2052 12
1890 2056 2011 2046 12
2032 2035 1982 2027 12
2202 2063 1963 2038 13
1949 2063 1950 2037 13
1975 2067 2004 2056 13
2216 2054 2068 2067 14
2045 2079 2084 2061 14
1912 2057 2041 2037 14
2193 2074 2037 2034 15
2117 2070 2121 2103 15
1886 2055 2050 2042 15
2115 2058 2065 2074 15
2170 2060 2020 2059 16
1907 2053 2050 2059 16
2026 2055 2112 2086 16
2214 2064 2054 2041 17
1975 2052 2001 2049 17
1956 2052 1994 2037 17
2221 2061 2024 2062 18
2036 2062 2103 2075 18
1881 2045 2053 2052 18
2192 2063 2048 2040 19
2121 2056 2098 2072 19
1913 2060 2051 2036 19
2102 2054 1999 2042 20
2176 2053 1941 2040 20
1905 2052 2080 2070 20
2021 2058 2172 2089 21
2230 2071 2099 2064 21
1998 2073 2000 2038 22
1958 2071 1891 2039 22
2224 2063 1972 2047 22
2059 2054 1982 2033 23
1881 2041 2030 2041 23
2153 2056 2058 2027 24
2139 2061 2130 2093 24
1895 2068 2179 2093 25
2091 2073 2176 2106 25
2224 2085 2121 2098 25
1940 2064 2065 2054 26
1997 2064 2062 2071 26
2253 2082 2031 2096 27
2023 2087 2001 2069 27
1962 2074 1950 2051 28
2213 2061 1892 2016 28
2069 2055 1940 2025 29
1871 2043 1993 2039 30
2123 2044 2174 2102 30
2140 2042 2144 2062 31
1877 2040 2059 2024 31
2043 2041 1970 1991 32
2208 2048 1975 2051 32
1946 2049 2016 2046 33
1966 2049 2086 2063 33
2217 2065 2038 2036 34
2030 2067 2064 2079 35
1909 2053 2084 2064 35
2189 2067 2083 2093 36
2098 2064 2005 2052 36
1886 2051 1971 2064 37
2133 2064 2082 2079 38
2184 2077 2278 2103 38
1911 2080 2178 2080 39
2032 2065 1950 2018 39
2241 2081 1905 2033 40
1999 2071 1980 2044 41
1983 2075 1983 2019 41
2234 2073 1903 2033 42
2062 2074 2015 2085 43
1892 2059 2178 2108 43
2169 2061 2265 2105 44
2136 2073 2152 2062 45
1882 2071 1985 2011 45
2092 2056 1989 2030 46
2199 2050 2049 2073 47
1914 2038 1932 2015 47
2004 2042 1874 2038 48
2239 2070 1903 2048 49
1989 2068 2156 2118 49
1945 2069 2315 2132 50
2219 2076 2126 2060 51
2089 2073 1902 2018 51
1880 2052 1919 2015 52
2162 2057 2155 2066 53
2128 2051 2306 2108 53
1873 2047 2037 1998 54
2082 2047 1899 2029 55
2181 2051 1943 2035 55
1929 2058 1972 2058 56
2019 2066 1881 2023 57
2253 2064 1944 2053 57
2018 2070 2140 2092 58
1937 2060 2254 2076 59
2231 2063 2150 2100 59
2176 2065 2006 2047 60
1901 2053 2178 2084 61
2130 2055 2060 2049 61
2103 2058 1941 2015 62
1839 2053 2042 2032 63
2014 2057 2173 2080 64
2185 2066 2129 2075 64
1888 2060 1905 2042 65
1956 2059 1837 2036 66
2226 2079 1994 2086 66
2019 2069 2003 2028 67
1910 2056 2011 2039 68
2183 2062 2137 2064 69
2106 2063 2155 2075 69
1888 2056 2145 2049 70
2103 2068 2053 2084 71
2199 2077 1863 2049 72
1911 2063 1890 2013 72
2043 2059 2002 2052 73
2243 2077 2074 2080 74
1951 2059 1948 2025 75
1953 2058 2048 2049 75
2239 2073 2249 2057 76
2067 2076 2241 2083 77
1900 2054 1892 2014 78
2205 2061 1758 2014 78
2139 2068 2055 2102 79
1892 2084 2387 2149 80
2091 2065 2363 2112 81
2190 2064 2164 2059 81
1856 2040 1850 1980 82
2005 2028 1797 1957 83
2247 2048 2012 2055 84
1998 2059 1968 2047 84
1944 2056 2014 2071 85
2195 2054 1967 2056 86
2043 2062 2113 2119 87
1881 2069 2076 2088 88
2169 2067 1929 2033 88
2162 2072 2060 2030 89
1874 2065 2136 2024 90
2085 2057 1906 2012 91
2243 2042 1876 2014 91
1933 2010 2056 2073 92
1996 2023 2337 2103 93
2242 2038 2217 2071 93
2012 2065 1804 2006 94
1931 2059 1906 2067 95
2228 2099 2227 2095 95
2105 2106 2413 2188 96
1929 2094 1971 2009 97
2169 2070 1635 1943 97
2193 2077 1937 2026 98
1868 2067 2253 2090 99
2047 2057 2417 2125 99
2218 2060 1978 2014 100
1934 2043 1817 2007 101
1970 2053 2024 2040 102
2229 2060 2202 2114 102
2007 2042 1906 1970 103
1887 2030 1857 2031 104
2182 2061 1986 2033 104
2114 2057 2111 2079 105
1869 2057 2208 2096 105
2150 2070 2005 2056 106
2187 2063 1682 1962 107
1879 2069 1940 2106 107
2037 2064 2385 2101 108
2254 2091 2413 2134 108
1975 2057 2031 2037 109
1932 2043 1743 1952 110
2270 2103 2113 2097 110
2085 2108 2480 2185 111
1924 2089 2054 2094 111
2161 2035 1622 1979 112
2105 2041 2045 2037 112
1858 2060 2425 2098 113
2083 2061 2153 2054 114
2164 2021 1483 1905 114
1898 2054 1959 2047 115
1978 2058 2364 2140 115
2241 2075 2313 2122 116
1991 2063 1704 1988 116
1933 2045 1854 1973 117
2228 2068 2169 2075 117
2035 2044 1992 2010 118
1859 2033 1979 1950 118
2160 2045 1987 2068 119
2160 2071 2247 2142 119
1926 2101 2027 2071 120
2182 2147 1889 2075 120
2402 2244 2486 2277 120
1973 2130 2248 2126 121
1971 2034 2306 2095 121
2135 1950 1980 1979 122
1860 1920 1895 1945 122
1803 1968 1947 1961 123
2143 1967 1896 1930 123
2034 1992 1867 1961 123
1831 2034 1625 1936 124
2093 1999 1893 2080 124
2219 2071 2353 2156 125
1851 2053 2216 2068 125
2019 2029 2028 2054 125
2273 2053 2056 2007 126
1921 2042 2146 2078 126
1964 2086 1960 1968 126
2287 2067 1785 1953 126
2031 2090 2227 2164 127
1946 2129 2521 2278 127
2264 2128 2370 2196 127
2123 2054 1787 1984 127
1837 2031 1805 1984 128
2165 2084 2092 2080 128
2237 2100 2101 2070 128
1902 2102 2070 2055 128
2051 2048 2034 2055 128
2206 2006 1981 2032 128
1881 2029 1983 2020 128
1927 2037 1925 2009 128
2225 2044 1868 1977 129
1995 2027 2058 2062 129
1843 2056 2203 2113 129
2197 2053 2134 2081 129
2145 2064 1914 2031 129
1861 2056 2033 2074 129
2093 2069 2222 2070 129
2222 2081 2199 2093 129
1878 2066 1988 2022 129
1999 2057 1881 2029 128
2280 2071 1831 2006 128
2001 2085 2147 2067 128
1934 2088 2107 2075 128
2260 2085 2204 2103 128
2089 2082 2034 2063 128
1890 2080 1952 2033 128
2178 2086 2078 2095 128
2165 2071 2057 2072 128
1877 2077 2019 2067 128
2104 2069 1995 2065 128
2280 2070 1969 2043 127
1947 2074 1991 2049 127
2002 2077 2043 2069 127
2305 2106 2144 2126 127
2053 2116 2069 2092 127
1926 2051 2007 2016 126
2255 2082 2121 2119 126
2057 2046 2211 2087 126
1845 2060 2112 2055 125
2188 2069 2000 2059 125
2182 2051 1955 2021 125
1897 2085 2145 2091 124
2031 2067 2142 2068 124
2207 2045 2016 2025 124
1917 2022 1933 2005 123
1931 2022 1984 2015 123
2195 2024 1983 2015 123
1999 2040 1984 2037 122
1849 2031 2002 2023 122
2182 2041 1963 2028 122
2103 2052 1998 2042 121
1871 2043 2000 2027 121
2096 2044 2008 2042 120
2174 2069 2055 2095 120
1897 2058 2047 2068 120
2012 2053 2010 2039 119
2221 2064 2174 2067 118
1940 2047 2106 2044 118
1940 2066 2125 2076 117
2223 2067 2067 2069 117
2030 2052 2021 2045 116
1896 2049 2054 2040 115
2180 2068 2032 2045 115
2137 2057 1973 2030 114
1894 2050 1999 2027 113
2110 2068 2058 2061 113
2239 2084 2134 2118 112
1921 2063 2036 2070 111
2047 2065 2014 2070 111
2216 2060 1998 2033 110
1989 2084 2057 2076 109
1930 2068 2135 2081 108
2218 2070 2119 2068 108
2116 2096 2147 2102 107
1851 2095 2013 2035 106
2241 2097 2059 2095 106
2157 2057 1989 2031 105
1891 2057 2057 2056 104
2066 2050 2068 2064 103
2228 2053 2046 2054 103
1931 2063 2052 2050 102
1978 2044 1903 2020 101
2227 2052 1967 2035 100
1993 2048 2065 2050 99
1906 2053 2166 2095 99
2218 2055 2131 2080 98
2092 2045 1871 2004 97
1831 2025 1844 1962 96
2095 2046 2108 2045 95
2178 2048 2217 2117 94
1848 2040 2194 2089 93
2023 2036 2057 2047 92
2214 2044 2016 2032 92
1935 2059 2072 2051 91
1939 2065 2017 2053 90
2250 2079 1989 2060 89
2026 2080 2043 2067 89
1877 2059 2026 2050 88
2216 2071 2033 2064 87
2116 2072 2048 2069 87
1855 2060 1958 2047 86
2105 2048 1972 2044 85
2160 2051 1990 2041 85
1868 2046 2050 2004 84
2059 2076 2128 2077 83
2281 2089 2053 2089 82
2005 2100 2127 2132 82
1961 2084 2177 2107 81
2260 2066 2146 2053 80
2072 2064 2094 2059 79
1893 2049 2011 2048 78
2197 2048 2033 2040 78
2145 2053 2056 2055 77
1903 2057 2019 2048 76
2093 2044 1979 2026 75
2232 2042 1995 2046 75
1893 2042 2000 2039 74
1965 2033 1979 2028 73
2211 2031 1963 2024 73
1983 2050 1938 2037 72
1924 2063 1980 2047 71
2228 2064 2067 2060 70
2090 2055 2122 2064 69
1877 2047 2017 2037 69
2142 2054 1997 2055 68
2178 2059 2034 2067 67
1876 2057 2212 2097 66
2058 2054 2193 2074 65
2210 2057 2119 2069 64
1917 2059 2016 2031 64
1993 2080 2019 2069 63
2249 2075 2028 2069 62
2028 2073 2021 2055 61
1915 2063 2004 2053 60
2191 2058 2013 2055 60
2097 2065 2004 2053 59
1878 2056 1999 2052 58
2109 2045 1971 2039 57
2177 2056 1957 2039 57
1901 2047 2005 2045 56
2055 2053 2081 2079 55
2239 2039 2176 2077 54
1949 2055 2077 2027 53
1956 2046 1982 2044 53
2206 2063 1990 2077 52
2095 2061 2118 2085 51
1880 2042 2009 2046 50
2146 2064 2022 2064 49
2091 2061 2052 2066 49
1880 2062 2190 2100 48
2081 2056 2235 2080 47
2200 2073 2124 2064 46
1921 2057 2009 2043 45
2003 2055 2001 2048 45
2228 2060 2011 2054 44
2003 2058 1990 2044 43
1935 2039 1991 2036 43
2174 2027 1994 2028 42
2068 2057 2019 2052 42
1899 2057 2025 2056 41
2163 2045 2033 2059 41
2152 2063 2033 2053 40
1879 2049 2038 2048 40
2089 2065 2049 2064 39
2213 2061 2039 2055 39
1913 2048 2034 2042 38
2011 2070 2063 2066 38
2224 2068 2058 2064 37
1994 2069 2058 2069 37
1915 2069 2063 2068 36
2185 2063 2044 2057 36
2063 2064 2046 2052 35
1860 2053 2038 2045 35
2151 2071 2057 2070 34
2186 2071 2055 2072 34
1920 2057 2043 2053 33
2075 2049 2051 2049 33
2253 2079 2067 2076 32
1973 2069 2054 2070 31
1987 2053 2040 2055 31
2212 2042 2026 2048 30
2020 2050 2029 2052 30
1926 2069 2033 2061 29
2208 2074 2040 2067 29
2123 2068 2044 2064 28
1879 2048 2036 2049 27
2104 2048 2042 2044 27
2190 2062 2051 2054 26
1879 2041 2031 2041 26
2029 2057 2043 2052 25
2231 2067 2052 2059 25
1963 2066 2043 2055 24
1963 2059 2050 2059 23
2214 2052 2043 2058 23
2066 2065 2052 2080 22
1929 2075 2059 2075 22
2183 2067 2062 2069 21
2147 2070 2067 2079 21
1876 2044 2017 2026 20
2076 2037 2049 2050 20
2192 2053 2029 2032 19
1903 2040 2036 2031 19
2099 2137 2132 2162 18
2299 2141 2123 2154 18
2012 2105 2112 2112 17
1953 2059 2062 2071 17
2228 2067 2048 2063 17
2037 2064 2074 2088 16
1886 2058 2021 2058 16
2149 2029 1999 2024 16
2095 2012 1991 2021 15
1858 2043 2031 2039 15
2059 2031 2040 2046 15
2184 2023 2021 2028 14
1905 2042 2026 2039 14
1975 2042 2047 2045 14
2192 2021 2013 2022 13
1975 2033 2022 2035 13
1919 2065 2048 2050 13
2235 2103 2078 2081 13
2139 2105 2088 2095 13
1901 2064 2055 2076 12
2144 2077 2060 2065 12
2162 2059 2047 2053 12
1903 2066 2045 2050 12
2028 2044 2021 2030 12
2205 2054 2032 2040 12
1948 2065 2046 2051 12
1965 2052 2037 2035 11
2224 2067 2067 2072 11
2032 2067 2034 2061 11
1918 2055 2051 2079 11
2187 2066 2048 2064 11
2112 2066 2051 2048 11
1893 2071 2052 2058 11
2112 2057 2050 2063 11
2169 2045 2017 2015 10
1909 2054 2060 2062 10
2020 2051 2019 2038 10
2200 2050 2016 2014 10
1966 2050 2034 2039 10
1945 2047 1999 1998 10
2215 2066 2078 2115 10
2078 2081 2058 2080 10
1888 2049 2044 2059 9
2195 2087 2060 2059 9
2144 2078 2040 2043 9
1888 2065 2019 2041 9
2105 2070 2057 2081 9
2189 2062 2036 2053 9
1917 2062 2047 2052 8
1999 2043 2041 2046 8
2229 2065 2058 2071 8
1999 2072 2062 2070 7
1939 2059 2056 2060 7
2205 2055 2040 2049 7
2069 2050 2027 2041 7
1869 2056 2027 2031 7
2165 2074 2073 2087 6
2144 2054 1992 2011 6
1889 2063 2078 2098 6
2094 2082 2049 2059 6
2231 2087 2063 2065 6
1936 2067 2049 2069 5
1977 2051 2032 2046 5
2210 2050 2049 2088 5
2002 2056 2026 2041 5
1894 2024 2019 2038 5
2200 2053 2019 2020 5
2108 2072 2081 2069 5
1889 2067 2047 2050 4
2145 2069 2069 2081 4
2187 2063 2045 2055 4
1880 2057 2034 2041 4
2045 2052 2045 2051 4
2232 2065 2050 2064 4
1925 2049 2030 2046 4
1955 2048 2047 2050 4
2248 2067 2051 2064 4
2009 2039 2027 2035 3
1936 2084 2052 2048 3
2186 2058 2013 2008 3
2111 2056 2048 2059 3
1877 2048 2056 2065 3
2129 2059 2032 2046 3
2194 2069 2053 2056 3
1889 2055 2022 2042 3
2026 2044 2018 2038 3
2221 2063 2038 2068 3
1980 2080 2016 2067 3
1965 2065 2011 2052 3
2239 2072 2012 2058 3
2064 2069 2048 2068 3
1903 2063 2060 2057 3
2175 2057 2093 2064 3
2149 2069 2082 2065 3
1901 2076 2044 2071 3
2095 2070 2038 2066 3
2220 2074 2031 2049 3
1917 2056 2031 2038 3
1991 2043 2071 2043 3
2214 2051 2139 2069 3
1979 2043 2188 2054 3
1926 2056 2124 2038 3
2212 2060 2002 2042 3
2068 2057 1923 2042 3
1900 2062 1966 2064 4
2155 2055 2038 2075 4
2159 2072 2077 2065 4
1896 2061 2050 2028 4
2080 2061 2052 2063 4
2228 2072 2070 2090 4
1943 2088 2130 2104 5
1993 2067 2084 2068 5
2223 2059 2022 2043 5
2026 2071 1968 2045 6
1921 2059 1977 2048 6
2207 2066 2069 2078 6
2098 2058 2101 2073 7
1886 2053 2019 2034 7
2132 2053 1976 2024 8
2174 2058 1984 2042 8
1885 2043 1954 2008 9
2049 2064 2009 2045 9
2222 2077 2036 2076 10
1950 2063 2172 2117 10
1964 2061 2249 2115 11
2230 2073 2223 2080 11
2064 2077 2125 2060 12
1919 2063 2029 2056 12
2195 2064 1999 2071 13
2120 2064 1979 2055 13
1889 2060 1968 2038 14
2122 2061 1980 2036 15
2209 2077 1989 2057 15
1907 2054 1929 2004 16
2021 2058 1952 2046 17
2225 2059 1943 2010 17
1968 2059 2099 2104 18
1943 2059 2055 2050 19
2228 2076 2116 2102 19
2079 2080 2098 2074 20
1900 2063 2053 2064 21
2183 2062 2063 2042 21
2143 2057 2155 2109 22
1860 2043 2170 2049 23
2071 2041 2154 2064 23
2193 2043 1968 1981 24
1884 2039 1900 2014 25
2003 2050 1991 2040 25
2223 2052 2082 2082 26
1995 2040 1949 2025 27
1945 2054 1826 1996 28
2213 2062 1963 2077 28
2072 2064 2224 2136 29
1884 2056 2220 2103 30
2148 2058 2105 2038 31
2150 2068 2023 2035 32
1892 2066 2087 2073 32
2075 2079 2074 2079 33
2220 2074 1989 2049 34
1962 2079 1870 2036 35
2005 2077 1931 2030 36
2229 2068 2050 2088 36
2008 2055 2191 2035 37
1898 2040 2120 2045 38
2127 2035 1975 2043 39
2064 2038 1922 2009 40
1853 2025 2024 2048 41
2103 2055 2171 2066 42
2208 2072 2221 2075 43
1900 2069 2185 2098 44
2050 2075 2039 2062 44
2180 2066 1939 2033 45
1952 2082 1907 2033 46
1991 2090 2092 2057 47
2242 2084 2095 2077 48
2080 2072 1931 2043 49
1928 2064 1879 2041 50
2204 2056 1936 2025 51
2150 2069 2197 2111 52
1922 2060 2059 2076 53
2129 2058 2000 2062 54
2229 2067 1998 2074 55
2054 2076 2140 2032 55
2067 2064 2185 2080 56
2236 2062 2059 2063 57
1916 2059 2019 2043 58
1866 2074 2107 2087 59
2141 2086 2286 2119 60
2045 2091 1956 2069 61
1804 2059 1839 2015 62
2100 2057 1862 2017 63
2132 2063 2190 2085 64
1884 2058 2215 2089 64
2084 2042 1843 1998 65
2168 2032 1802 1980 66
1908 2034 1984 1995 67
1982 2031 2279 2090 68
2225 2048 2146 2053 69
1988 2045 1965 2003 69
1912 2048 2034 2009 70
2199 2056 2134 2112 71
2085 2067 2017 2085 72
1879 2051 1897 2066 73
2147 2074 2014 2041 73
2184 2077 2094 2071 74
1870 2056 2015 2021 75
2060 2067 1999 2048 76
2252 2078 1931 1987 76
1933 2087 2207 2119 77
1998 2080 2241 2115 78
2254 2083 2230 2089 79
2025 2064 2009 2052 79
1912 2047 1764 1976 80
2210 2060 1917 2038 81
2096 2063 1952 2074 82
1867 2045 1980 2027 82
2156 2047 1974 2021 83
2203 2065 2225 2159 84
1907 2073 2326 2160 85
2050 2069 2254 2175 85
2287 2082 1951 2016 86
1971 2055 1916 1987 87
1972 2070 2083 2061 88
2263 2094 1950 2054 88
2024 2059 1752 1977 89
1904 2060 1996 2019 90
2172 2049 2302 2095 91
2103 2045 2207 2103 91
1819 2016 1854 1955 92
2084 2029 1828 1995 93
2187 2066 2142 2094 94
1900 2071 2235 2113 94
2047 2072 2052 2061 95
2263 2066 1955 2023 96
1968 2066 2100 2091 96
1925 2061 1926 2040 97
2218 2048 1715 1919 98
2078 2063 2008 2007 99
1881 2065 2300 2132 99
2191 2069 1904 2056 100
2144 2052 1989 2054 101
1874 2064 2227 2152 101
2116 2088 2385 2162 102
2244 2090 2052 2118 103
1935 2045 1494 1882 103
2004 2042 2051 2017 104
2208 2062 2591 2144 105
2001 2097 2559 2202 105
1924 2063 2053 2069 106
2213 2030 1535 1901 107
2061 2031 1828 1993 107
1843 2050 2146 2068 108
2168 2043 2019 2033 108
2176 2029 1805 1942 109
1879 2041 1900 2037 109
2041 2065 2280 2163 110
2233 2059 2139 2099 111
1938 2049 1698 2035 111
1997 2049 1863 1989 112
2219 2055 2122 2009 112
2041 2057 2327 2070 113
1943 2082 2327 2097 113
2235 2112 2105 2147 114
2113 2111 2187 2175 114
1859 2067 1658 1923 115
2092 2043 1919 2037 115
2147 2097 2454 2204 115
1843 2094 2427 2167 116
2036 2076 1962 2033 116
2212 2042 1772 1979 117
1924 2040 2037 2049 117
1921 2048 2047 2056 118
2189 2046 1809 1966 118
2015 2022 1510 1911 119
1896 2065 2229 2130 119
2176 2082 2382 2145 119
2131 2069 2342 2092 120
1916 2084 2141 2075 120
2120 2063 1832 2027 120
2216 2066 2197 2127 121
1925 2045 2008 2030 121
1987 2019 1890 1984 121
2235 2043 1983 2022 122
1984 2060 2034 2053 122
1909 2016 1950 2000 122
2243 2070 2023 2040 122
2057 2031 2123 2068 123
1876 2045 2089 2049 123
2182 2047 2005 2044 123
2155 2054 1929 2029 123
1864 2043 2023 2040 123
2103 2078 2090 2084 123
2210 2057 1958 2031 123
1948 2072 2059 2114 123
1993 2057 2072 2043 123
2224 2057 2155 2069 123
2003 2066 2091 2062 123
1909 2052 2039 2017 123
2243 2087 2127 2124 123
2110 2078 2085 2081 123
1885 2072 2046 2081 123
2132 2035 1993 2020 123
2179 2056 1955 2026 123
1848 2051 1964 2015 123
2045 2059 2101 2079 123
2218 2064 2170 2078 122
1943 2051 2142 2050 122
1937 2056 2019 2038 122
2243 2049 1983 2041 122
2064 2065 2042 2059 122
1907 2059 2030 2046 121
2160 2062 1982 2064 121
2151 2053 1983 2016 121
1844 2041 2033 2052 121
2115 2049 1931 1991 120
2224 2071 2045 2057 120
1878 2076 1999 2027 120
2023 2056 2117 2089 119
2241 2063 2000 2041 119
1989 2093 2136 2129 118
1976 2080 2167 2086 118
2258 2090 2173 2095 118
2059 2077 2132 2072 117
1903 2064 2016 2032 117
2182 2060 2032 2039 116
2105 2052 2024 2033 116
1861 2051 1983 2028 115
2097 2059 1991 2048 115
2237 2070 2021 2056 115
1925 2068 2064 2069 114
2014 2052 2017 2038 114
2209 2046 2022 2037 113
1915 2037 2022 2031 113
1881 2049 2013 2041 112
2185 2049 1980 2025 112
2046 2055 1993 2072 111
1865 2074 2087 2086 110
2151 2079 2185 2122 110
2161 2082 2144 2071 109
1892 2074 2100 2080 108
2087 2066 2057 2052 108
2208 2056 1994 2042 107
1928 2048 2043 2055 106
1993 2063 2029 2048 106
2254 2061 2054 2042 105
2018 2049 2036 2040 105
1906 2034 2006 2029 104
2211 2042 1966 2034 103
2091 2047 1945 2038 103
1925 2059 2019 2070 102
2208 2066 2077 2082 101
2243 2084 2066 2067 101
1904 2062 1975 2034 100
2111 2092 2110 2100 99
2255 2074 2161 2099 99
1953 2071 2148 2082 98
1951 2035 1967 1994 97
2241 2080 2057 2056 96
1981 2054 2162 2111 96
1878 2046 2152 2073 95
2167 2038 2032 2037 94
2075 2043 1986 2024 93
1830 2033 2000 2020 93
2103 2037 1974 2013 92
2151 2051 1986 2035 91
1857 2041 2016 2037 90
2022 2048 2052 2046 90
2230 2057 2015 2049 89
1957 2052 2001 2033 88
1949 2079 2038 2068 88
2212 2067 2028 2056 87
2039 2070 2050 2069 86
1905 2072 2103 2078 86
2176 2059 2097 2057 85
2155 2083 2117 2080 84
1897 2074 2072 2065 83
2128 2094 2099 2112 82
2280 2108 2141 2136 82
1955 2092 2114 2111 81
2040 2082 2005 2057 80
2276 2083 2035 2076 79
2009 2068 2039 2066 78
1936 2055 2038 2045 77
2248 2060 2036 2049 77
2043 2057 2009 2028 76
1860 2047 1977 2030 75
2133 2038 1937 2023 74
2138 2037 1925 2020 73
1853 2016 1942 1994 73
2065 2040 2039 2031 72
2210 2036 2079 2026 71
1909 2032 2057 2043 70
1982 2049 2087 2046 69
2234 2057 2077 2085 68
2002 2058 2096 2058 67
1886 2048 2095 2063 67
2208 2052 2093 2060 66
2097 2069 2108 2067 65
1892 2079 2039 2060 64
2178 2072 2007 2063 63
2186 2064 2007 2058 63
1877 2056 2001 2048 62
2020 2047 1988 2033 61
2222 2060 1997 2047 61
1943 2050 2028 2041 60
1961 2060 1981 2033 59
2225 2051 2018 2041 59
2012 2047 1939 2035 58
1879 2053 1958 2040 57
2186 2065 2003 2066 57
2112 2051 2083 2048 56
1880 2051 2202 2081 55
2088 2037 2156 2064 54
2179 2062 2136 2078 54
1927 2071 2083 2075 53
2030 2054 2039 2052 52
2243 2078 2040 2066 52
1970 2076 2031 2065 51
1935 2075 2071 2064 50
2194 2062 2021 2065 50
2032 2051 1996 2053 49
1900 2052 2025 2051 48
2143 2036 2022 2032 48
2145 2063 2045 2056 47
1881 2066 2018 2059 46
2093 2061 2021 2061 46
2245 2077 2039 2073 45
1932 2045 1992 2049 44
2024 2079 1986 2079 44
2269 2079 2043 2075 43
2000 2056 2094 2057 42
1953 2069 2152 2076 42
2198 2040 2111 2032 41
2079 2053 2052 2044 40
1890 2058 2080 2057 40
2146 2056 2062 2066 39
2156 2062 2086 2078 38
1858 2049 2033 2050 38
2020 2048 2006 2040 37
2158 2054 2024 2048 37
1890 2057 2025 2045 36
1967 2069 2018 2051 36
2228 2056 2020 2050 35
2037 2060 2032 2072 35
1919 2044 2027 2050 34
2261 2099 2065 2086 34
2127 2067 2047 2069 33
1909 2044 2024 2050 33
2147 2050 2008 2036 32
2200 2046 2036 2066 32
1945 2073 2047 2064 31
2035 2046 2040 2051 31
2272 2132 2142 2151 31
1906 2018 1976 1986 30
1958 2064 2047 2049 30
2212 2059 2064 2066 29
2048 2072 2090 2080 29
1909 2062 2080 2076 29
2187 2068 2071 2061 28
2126 2062 2057 2057 28
1897 2078 2042 2056 28
2112 2061 2036 2058 27
2206 2074 2050 2064 27
1913 2055 2031 2052 27
2027 2048 2028 2036 26
2220 2048 2031 2040 26
1975 2063 2051 2075 26
1970 2088 2033 2041 25
2218 2065 2054 2072 25
2073 2083 2049 2073 25
1901 2064 2049 2068 24
2159 2063 2035 2054 24
2130 2058 2034 2045 24
1875 2048 2043 2049 23
2057 2027 2025 2033 23
2212 2063 2063 2071 23
1931 2062 2048 2055 23
2003 2079 2059 2069 22
2220 2055 2043 2054 22
1997 2055 2034 2049 22
1928 2057 2048 2061 22
2207 2068 2050 2063 21
2095 2064 2048 2060 21
1869 2036 2016 2040 21
2168 2081 2054 2069 21
2147 2050 2036 2041 20
1906 2063 2061 2067 20
2051 2047 2033 2041 20
2220 2080 2056 2060 20
1942 2059 2041 2027 20
1979 2061 2056 2053 20
2204 2049 2015 2022 19
2027 2068 2079 2108 19
1910 2055 2016 2036 19
2169 2049 2031 2058 19
2106 2056 2016 2027 19
1891 2064 2074 2091 19
2099 2049 2002 2019 19
2184 2067 2054 2065 18
1901 2046 2033 2047 18
2050 2069 2046 2057 18
2229 2083 2068 2075 18
1977 2080 2046 2056 18
1967 2061 2049 2056 18
2204 2057 2050 2060 17
2039 2053 2045 2042 17
1901 2046 2031 2012 17
2168 2052 2057 2065 17
2098 2041 2037 2066 16
1891 2055 2018 2051 16
2087 2041 1999 2025 16
2166 2044 2026 2038 16
1915 2057 2050 2064 15
2032 2077 2064 2065 15
2244 2079 2064 2075 15
2052 2122 2103 2102 14
1998 2121 2119 2119 14
2325 2177 2152 2162 14
2149 2124 2124 2129 14
1932 2105 2085 2080 13
2147 2060 2048 2021 13
2119 2027 2004 2044 13
1829 1998 2001 2031 13
2005 1996 1943 1975 12
2148 1999 2015 2002 12
1875 1999 1957 1973 12
1967 2041 2025 2047 12
2189 2022 1996 2032 11
1961 2025 1989 2006 11
1894 2031 2033 2047 11
2166 2043 2004 2026 11
2086 2069 2051 2077 10
1959 2115 2100 2111 10
2182 2105 2098 2095 10
2174 2063 2067 2079 9
1906 2065 2047 2050 9
2037 2039 2044 2046 9
2213 2069 2065 2066 9
1960 2072 2063 2062 8
1980 2052 2041 2039 8
2208 2052 2029 2041 8
2032 2068 2052 2063 8
1883 2019 2006 2016 8
2159 2037 2039 2042 7
2075 2033 2026 2032 7
1856 2026 2007 2021 7
2080 2011 1998 2009 7
2139 2020 2012 2019 7
1892 2041 2026 2039 7
2025 2048 2028 2047 7
2223 2055 2030 2051 7
1973 2059 2025 2063 7
1961 2055 2032 2064 7
2220 2067 2039 2067 7
2062 2074 2064 2070 7
1897 2054 2074 2051 7
2174 2070 2064 2056 7
2133 2068 2043 2048 7
1908 2075 1993 2052 7
2085 2055 1946 2034 7
2205 2077 1961 2055 7
1927 2064 2034 2066 7
2018 2061 2088 2087 7
2222 2065 2058 2062 7
1982 2057 1947 2043 7
1960 2079 1975 2063 7
2223 2077 2201 2111 7
2085 2076 2392 2109 7
1904 2058 2276 2057 7
2165 2068 2120 2047 7
2144 2080 2021 2047 7
1891 2057 2040 2064 7
2057 2053 2062 2075 8
2208 2059 2015 2067 8
1941 2060 2021 2074 8
2001 2063 2015 2048 9
2233 2069 2020 2064 9
2008 2073 1970 2043 9
1922 2061 1925 2032 10
2208 2066 1905 2023 10
2108 2065 1970 2065 11
1902 2071 2075 2082 11
2140 2071 2150 2092 12
2181 2077 2047 2061 12
1907 2069 2056 2077 12
2059 2063 2097 2071 13
2228 2092 2092 2060 13
1946 2080 1991 2022 14
1984 2070 2016 2027 15
2224 2077 2182 2107 15
2040 2090 2221 2127 16
1954 2079 2036 2055 16
2212 2082 1896 2062 17
2144 2078 1995 2044 17
1912 2080 2088 2102 18
2138 2082 2027 2074 19
2200 2084 2061 2121 19
1930 2064 2162 2064 20
2062 2085 2296 2116 21
2231 2076 2168 2055 22
2012 2097 2034 2078 22
1942 2042 2014 2042 23
2180 2027 2071 2029 24
1994 2013 1998 1994 25
1847 2005 1926 1989 25
2126 2021 1794 1992 26
2118 2036 1777 1986 27
1846 2005 1643 1945 28
2045 2005 1957 2015 29
2141 2023 2245 2048 30
1902 2060 2372 2134 30
1999 2068 2194 2076 31
2256 2079 1999 2068 32
1987 2056 2030 2055 33
1917 2064 2148 2090 34
2211 2063 1911 2029 35
2090 2059 1813 1999 35
1890 2046 1974 2039 36
2191 2088 2287 2117 37
2186 2115 2274 2162 38
1900 2086 2045 2079 39
2030 2016 1914 1976 40
2157 1981 2021 1992 40
1957 2093 2115 2074 41
1993 2076 1977 2058 42
2274 2094 1938 2048 43
2013 2052 1957 2050 44
1900 2045 1964 2026 45
2170 2055 1962 2038 45
2098 2053 2147 2079 46
1879 2049 2124 2046 47
2114 2079 1960 2044 48
2190 2089 1933 2037 49
1909 2071 1992 2035 50
2029 2068 2038 2023 50
2202 2091 2048 2041 51
1955 2080 2063 2087 52
1965 2041 2104 2080 53
2221 2028 2199 2092 54
2016 2023 2157 2048 54
1915 2031 2172 2081 55
2189 2042 2187 2070 56
2175 2051 1926 2009 57
1953 2033 1896 1988 58
2283 2053 1998 2046 59
2238 2061 2082 2102 60
1911 2061 1960 2030 61
1929 2062 1910 2018 62
2104 2072 1801 2044 62
1898 2069 1962 2076 63
1904 2071 2120 2065 64
2155 2063 2072 2017 65
2011 2074 2105 2052 66
1877 2063 2177 2079 67
2175 2081 2156 2113 67
2146 2084 2265 2116 68
1887 2065 2216 2086 69
2137 2059 1902 2034 70
2227 2056 1857 2009 71
1918 2045 1922 2000 72
2007 2048 2230 2085 73
2219 2062 1984 2041 74
1941 2043 1879 2047 74
1939 2063 1993 2033 75
2210 2083 2325 2139 76
2088 2092 2112 2071 77
1894 2074 1817 2048 78
2153 2075 2008 2007 78
2159 2076 2158 2075 79
1881 2067 1930 2003 80
2085 2060 1754 1958 81
2234 2076 2177 2113 82
1929 2081 2397 2102 83
1980 2072 2080 2064 83
2237 2071 1893 2063 84
2040 2089 1931 2069 85
1915 2062 1927 2060 86
2232 2071 2043 2005 86
2109 2064 2078 2067 87
1892 2082 2220 2035 88
2163 2096 2292 2170 89
2239 2092 2077 2115 89
1920 2066 1970 2041 90
2069 2051 2052 2065 91
2225 2049 2063 2095 92
1903 2035 2176 2064 92
1956 2027 1846 1937 93
2241 2019 1788 1973 94
2001 2037 2118 2020 95
1891 2045 2297 2105 95
2197 2059 2101 2080 96
2100 2047 1920 2057 97
1867 2043 1929 2041 97
2123 2034 2053 2009 98
2176 2044 2022 2019 99
1864 2053 1965 2039 100
2145 2112 2024 2171 100
2227 2063 1855 1991 101
1929 2043 2026 2009 102
1949 2074 2262 2126 102
2225 2107 2560 2228 103
2068 2089 2214 2118 104
1918 2041 1703 1945 104
2156 2046 1702 1969 105
2121 2066 2056 2067 106
1903 2068 2256 2082 106
2106 2060 2274 2069 107
2203 2016 1478 1785 108
1896 2029 1715 1948 108
1980 2063 2459 2228 109
2258 2086 2404 2199 109
2005 2065 1888 2012 110
1964 2048 1801 1967 110
2234 2063 2192 2138 111
2105 2090 2333 2153 111
1893 2042 2027 2038 112
2137 2043 1974 2000 112
2125 2048 2149 2083 113
1873 2074 2146 2115 114
2019 2031 1669 1953 114
2189 2041 1865 2020 115
1895 2066 2210 2096 115
1935 2043 2053 1999 116
2191 2042 2070 2033 116
1967 2065 2077 2090 116
1882 2071 2081 2071 117
2132 2051 1986 2035 117
2098 2063 2121 2092 118
1860 2067 2079 2087 118
2136 2095 2324 2172 118
2176 2068 1976 2017 119
1905 2048 1851 1968 119
2041 2076 1983 2048 119
2247 2082 2101 2090 120
1979 2074 2075 2067 120
1985 2063 2106 2081 120
2249 2051 1998 2031 120
2050 2052 2000 2051 121
1918 2050 1987 2030 121
2233 2075 2024 2076 121
2136 2047 1909 2053 121
1886 2040 1909 2020 121
2120 2051 2227 2105 121
2200 2045 2149 2035 121
1913 2041 2176 2062 121
2004 2038 1991 2030 121
2231 2051 1970 2043 121
1950 2040 1936 1995 121
1947 2052 2047 2109 121
2224 2064 2140 2095 121
2071 2095 2192 2113 121
1880 2065 2057 2039 121
2204 2065 1978 2057 121
2147 2075 2087 2078 121
1876 2076 2155 2096 121
2105 2066 2076 2059 121
2219 2068 2009 2052 121
1914 2064 2030 2056 120
2015 2064 2042 2056 120
2222 2060 1976 2048 120
2017 2056 1956 2041 120
1887 2056 2104 2057 120
2230 2076 2128 2071 119
2115 2069 2067 2055 119
1862 2048 1994 2034 119
2179 2063 2063 2077 118
2169 2068 2124 2084 118
1927 2090 2081 2103 118
2094 2072 1934 2021 117
2279 2065 2026 2028 117
1946 2069 2111 2110 116
1995 2076 2150 2092 116
2252 2072 2155 2118 115
2017 2062 2094 2066 115
1870 2050 2043 2031 114
2182 2061 2006 2046 114
2055 2061 1990 2039 113
1829 2043 2033 2035 113
2093 2049 2008 2031 112
2140 2057 1974 2044 112
1877 2057 2021 2044 111
2028 2064 2061 2060 111
2219 2071 1987 2036 110
1916 2054 1930 2013 110
1963 2082 2118 2127 109
2246 2069 2097 2067 109
2037 2072 2136 2093 108
1921 2071 2063 2056 107
2189 2058 2067 2076 106
2140 2069 2209 2125 106
1884 2048 2053 2059 105
2124 2052 2005 2061 104
2206 2051 2013 2057 104
1934 2037 2070 2024 103
2019 2037 2083 2023 102
2249 2041 2041 2024 102
1955 2037 1975 2024 101
1961 2046 2004 2047 100
2253 2070 2026 2057 99
2088 2072 2013 2061 99
1889 2059 2020 2056 98
2152 2051 2005 2041 97
2131 2055 1984 2044 97
1878 2060 1981 2048 96
2095 2063 2024 2067 95
2196 2060 2045 2045 94
1918 2070 2203 2095 94
1984 2045 2158 2065 93
2215 2048 2141 2066 92
1977 2056 2011 2035 91
1897 2058 2041 2062 90
2177 2060 2084 2072 90
2116 2073 2093 2090 89
1887 2064 2021 2046 88
2170 2068 2024 2047 87
2178 2061 2015 2040 87
1867 2047 1962 2029 86
2034 2051 1975 2033 86
2226 2056 2039 2050 85
1944 2061 1995 2051 84
1982 2080 1937 2054 84
2233 2073 1976 2069 83
2018 2072 2151 2076 82
1898 2053 2263 2064 82
2191 2052 2213 2057 81
2132 2081 2116 2075 80
1920 2085 2006 2071 80
2171 2087 2012 2085 79
2200 2081 2027 2065 78
1903 2056 2027 2037 77
2011 2049 2037 2046 77
2212 2053 2032 2048 76
1972 2054 2057 2062 75
1945 2041 2033 2042 74
2223 2038 1995 2031 73
2023 2039 1913 2016 73
1874 2036 1855 2006 72
2188 2044 1934 2029 71
2142 2056 2073 2061 70
1887 2063 2135 2071 69
2100 2069 2159 2079 68
2227 2078 2105 2067 68
1924 2061 2104 2053 67
2005 2048 2141 2072 66
2221 2072 2061 2068 65
1970 2070 1990 2061 64
1934 2064 2012 2070 64
2204 2070 2065 2068 63
2072 2075 2096 2067 62
1892 2076 2052 2055 62
2159 2071 1993 2063 61
2190 2060 1970 2036 60
1882 2055 1989 2038 59
2075 2043 2043 2046 59
2199 2040 2018 2045 58
1869 2026 2028 2019 57
1927 1999 2014 2031 57
2211 2054 2046 2058 56
1981 2048 2039 2057 55
1909 2049 2031 2050 55
2179 2044 2035 2037 54
2072 2048 1967 2039 53
1884 2054 2025 2059 53
2163 2080 2096 2084 52
2186 2065 2146 2065 52
1894 2055 2114 2061 51
2030 2057 2047 2045 50
2194 2066 1948 2048 50
1953 2091 1981 2061 49
1961 2056 2009 2062 48
2262 2080 2117 2096 48
2051 2065 2171 2095 47
1920 2048 2069 2052 47
2213 2071 2023 2065 46
2114 2057 2021 2055 45
1902 2068 2025 2053 45
2139 2059 2030 2056 44
2159 2061 1942 2033 44
1907 2044 1941 2042 43
2064 2062 2035 2071 43
2243 2070 2118 2074 42
1982 2079 2131 2054 41
1960 2053 2101 2056 41
2220 2061 2105 2068 40
2056 2068 2098 2072 40
1887 2057 2024 2043 39
2175 2066 2001 2053 39
2092 2051 2015 2050 38
1807 2020 2013 2024 38
2085 2055 2064 2065 37
2176 2063 2048 2064 37
1885 2059 2029 2051 36
2012 2041 2015 2043 36
2243 2061 2029 2053 36
2010 2072 2048 2074 35
1992 2085 2056 2081 35
2222 2046 2025 2048 34
2132 2103 2074 2089 34
1869 2025 2023 2027 33
2224 2088 2075 2085 33
2170 2075 2054 2073 33
1919 2067 2047 2063 32
2102 2067 2044 2076 32
2198 2048 2024 2040 31
1931 2057 2037 2054 31
2001 2074 2052 2066 30
2244 2079 2066 2078 30
2003 2069 2054 2069 30
1920 2059 2044 2056 29
2166 2038 2031 2044 29
2080 2060 2046 2057 28
1883 2054 2046 2049 28
2161 2071 2064 2064 27
2159 2049 2038 2047 27
1889 2044 2037 2044 27
2056 2051 2039 2047 26
2194 2060 2034 2041 26
1949 2069 2052 2057 25
1976 2044 2021 2028 25
2209 2049 2038 2038 25
2047 2084 2075 2099 24
1912 2056 2032 2044 24
2162 2035 2036 2047 23
2121 2059 2038 2047 23
1859 2040 2049 2069 22
2127 2061 2034 2051 22
2178 2053 2024 2037 22
1923 2079 2072 2081 21
2045 2073 2054 2078 21
2228 2070 2054 2085 20
1969 2050 2020 2037 20
1939 2053 2041 2041 20
2203 2056 2049 2049 19
2029 2033 2026 2029 19
1904 2057 2045 2047 19
2151 2057 2045 2045 18
2149 2077 2071 2078 18
1918 2071 2037 2059 18
2094 2070 2050 2076 17
2256 2129 2132 2159 17
1917 2056 2025 2036 17
2006 2070 2035 2026 16
2236 2061 2092 2084 16
1988 2043 1988 2000 16
1935 2067 2060 2086 16
2213 2074 2022 2053 15
2080 2050 2027 2037 15
1874 2044 2055 2054 15
2137 2050 2050 2057 15
2155 2064 2039 2049 14
1895 2059 2056 2055 14
2074 2058 2055 2064 14
2215 2074 2055 2069 14
1934 2062 2048 2052 13
1985 2046 2038 2050 13
2244 2074 2044 2055 13
2052 2095 2075 2084 12
1953 2096 2077 2090 12
2217 2071 2058 2064 12
2066 2048 2035 2043 12
1881 2057 2035 2038 11
2105 2041 2031 2031 11
2163 2059 2025 2022 11
1878 2033 2032 2005 11
2031 2041 2073 2107 11
2198 2056 2030 2061 10
1946 2060 2025 2062 10
1971 2048 2012 2017 10
2199 2058 2047 2048 10
2033 2064 2022 2068 10
1905 2047 2008 2050 9
2196 2074 2040 2062 9
2120 2064 2055 2057 9
1899 2069 2064 2062 9
2129 2068 2051 2064 9
2177 2060 2055 2060 9
1903 2053 2016 2048 8
2005 2036 1999 2036 8
2214 2055 1998 2047 8
1962 2059 2040 2056 8
1969 2063 2071 2062 7
2227 2065 2107 2073 7
2059 2068 2112 2066 7
1893 2068 2093 2064 7
2183 2076 2075 2071 7
2132 2064 2011 2045 7
1879 2048 1975 2034 6
2093 2051 1956 2041 6
2169 2047 2036 2070 6
1923 2062 2075 2070 6
1992 2039 2114 2047 6
2201 2040 2079 2034 6
1988 2065 2050 2035 6
1928 2052 2001 2043 6
2225 2075 2023 2067 6
2049 2044 1991 2027 6
1872 2051 2002 2038 6
2153 2059 1986 2029 6
2142 2058 2004 2057 6
1885 2062 2052 2043 6
2068 2052 2200 2069 6
2208 2073 2229 2084 6
1937 2078 2165 2083 6
1999 2058 2034 2054 7
2242 2072 1992 2050 7
2032 2086 2042 2076 7
1939 2065 2044 2059 7
2213 2075 2051 2073 7
2105 2073 2043 2063 8
1886 2062 1971 2047 8
2145 2070 1906 2045 9
2175 2066 1927 2065 9
1896 2062 2049 2059 9
2057 2057 2100 2038 10
2238 2073 2060 2044 10
1949 2060 2017 2044 11
1961 2052 2007 2034 11
2209 2048 2052 2059 12
2019 2063 2110 2091 12
1908 2062 2063 2073 13
2207 2078 2030 2085 13
2110 2063 1969 2057 14
1888 2061 2052 2076 14
2138 2066 2181 2064 15
2188 2058 2135 2038 15
1906 2051 2094 2044 16
2019 2060 1996 2037 16
2223 2080 2072 2084 17
1964 2059 1996 2059 17
1965 2070 2045 2061 18
2205 2061 2069 2103 19
2080 2080 2065 2063 19
1918 2067 2019 2052 20
2186 2073 1997 2056 20
2155 2073 2075 2053 21
1888 2060 2097 2069 22
2103 2076 2075 2071 22
2202 2070 2091 2071 23
1913 2058 2051 2035 24
1984 2040 1975 2027 25
2215 2047 1958 2028 25
1991 2068 1917 2036 26
1950 2062 1950 2037 27
2207 2050 1839 2016 28
2062 2048 2059 2075 28
1885 2068 2266 2068 29
2178 2087 2219 2074 30
2156 2060 1941 2031 30
1898 2058 1987 2064 31
2043 2041 2287 2105 32
2239 2106 2403 2151 33
1974 2099 2118 2078 34
2018 2078 1811 2029 34
2217 2054 1841 2044 35
1956 2024 2028 2024 36
1878 2015 1961 1995 37
2152 2014 1912 1980 38
2055 2033 1942 2008 39
1895 2046 2019 2043 40
2110 2042 2021 2024 40
2173 2054 2028 2024 41
1860 2024 2120 2064 42
2021 2048 2182 2082 43
2222 2068 2075 2067 44
1973 2081 1990 2041 45
2010 2099 1941 2075 46
2241 2087 2036 2083 47
2048 2073 1961 2072 48
1908 2047 1670 1935 48
2229 2093 1923 2052 49
2143 2081 2303 2082 50
1914 2092 2595 2171 51
2184 2087 2290 2095 52
2318 2084 1937 2037 53
1951 2062 1868 2008 54
1977 2037 2075 2072 55
2125 2041 1974 2044 56
1888 2029 1867 2023 57
1877 2034 1983 2039 58
2176 2044 2238 2090 59
1994 2064 2134 2066 60
1835 2053 1870 1993 60
2150 2061 1877 2022 61
2113 2065 2272 2160 62
1852 2080 2090 2088 63
2058 2056 1832 2021 64
2203 2059 1794 1989 65
1929 2044 2129 2041 66
2014 2057 2086 2071 67
2236 2061 1974 2052 68
1982 2058 2064 2112 68
1943 2081 2388 2127 69
2244 2077 2358 2096 70
2096 2080 1914 2030 71
1897 2046 1875 2009 72
2174 2053 2206 2114 73
2163 2063 2163 2085 74
1909 2063 2054 2083 74
2112 2057 1820 2001 75
2206 2068 2090 2100 76
1924 2071 1988 2036 77
1991 2066 1906 2042 78
2253 2081 1992 2059 78
2033 2079 2017 2037 79
1888 2051 2089 2081 80
2187 2073 2074 2052 81
2113 2077 2061 2071 82
1881 2053 2162 2099 82
2148 2065 2183 2022 83
2171 2070 2099 2066 84
1900 2065 2067 2061 84
2079 2085 1939 2041 85
2276 2095 2038 2081 86
2000 2090 2000 2059 87
1989 2078 2097 2065 87
2263 2069 2126 2074 88
2028 2052 2039 2124 89
1859 2048 2021 2085 89
2213 2071 2223 2106 90
2137 2058 2214 2022 91
1892 2032 2037 2027 91
2092 2021 1857 2013 92
2162 2024 1955 2025 93
1888 2031 2103 2045 93
2008 2028 1934 2029 94
2231 2024 1753 1974 94
1905 2024 1950 2020 95
1904 2045 2229 2046 96
2237 2062 2218 2113 96
2055 2081 2133 2094 97
1888 2064 1881 1997 97
2162 2066 1997 2065 98
2136 2074 2245 2147 99
1904 2069 1967 2101 99
2106 2059 1733 2002 100
2217 2069 2167 2059 100
1951 2094 2486 2135 101
2026 2095 2528 2179 101
2255 2061 2006 2045 102
1973 2024 1731 1939 103
1893 2042 2039 2054 103
2205 2057 1875 2033 104
2077 2053 1815 2011 104
1868 2043 1979 1996 105
2149 2043 2097 2053 105
2138 2048 1816 2046 106
1875 2031 1751 1981 106
2089 2054 2183 2067 107
2199 2083 2526 2168 107
1947 2089 2286 2117 108
1994 2057 1833 1994 108
2224 2048 1952 2012 109
2010 2057 2182 2097 109
1911 2064 2213 2097 110
2235 2067 1841 2057 110
2143 2095 1971 2034 111
1888 2067 2179 2080 111
2171 2099 2301 2111 111
2191 2075 2125 2056 112
1875 2059 1938 2039 112
2054 2051 1816 2016 113
2208 2055 2016 2041 113
1850 2016 1988 1972 114
1947 2056 1939 2017 114
2193 2059 1914 2025 114
2013 2060 2109 2089 115
1873 2036 2097 2053 115
2173 2072 2158 2136 115
2091 2064 1997 2062 115
1868 2075 2093 2049 116
2080 2048 2228 2088 116
2196 2089 2084 2052 116
1901 2059 1880 2063 116
2030 2068 2042 2063 116
2232 2055 2087 2052 117
1954 2051 1970 1976 117
1939 2040 2089 2023 117
2241 2068 2102 2111 117
2035 2065 2165 2125 117
1907 2060 2061 2079 117
2192 2058 1935 2010 117
2141 2058 2029 2059 118
1885 2060 2027 2051 118
2106 2034 1904 1993 118
2212 2047 1913 2008 118
1919 2060 2047 2052 118
2013 2066 2081 2088 118
2248 2056 1959 2019 118
1995 2057 2056 2047 118
1934 2063 2161 2073 118
2226 2070 2210 2096 118
2067 2065 2063 2057 118
1891 2058 2022 2075 118
2170 2066 2135 2103 118
2184 2087 2135 2095 118
1873 2047 1972 2044 118
2062 2057 1923 2032 117
2233 2068 2079 2060 117
1929 2059 2091 2061 117
1989 2061 2063 2047 117
2203 2061 2020 2043 117
2026 2073 2036 2068 117
1917 2049 2035 2036 117
2216 2064 2020 2040 116
2093 2054 1956 2027 116
1860 2052 1925 2017 116
2164 2055 2109 2102 116
2208 2076 2122 2095 115
1921 2080 2162 2111 115
2096 2091 2111 2095 115
2234 2080 2048 2078 114
1954 2063 2014 2052 114
1959 2050 2042 2061 114
2213 2041 2061 2045 113
1993 2057 2152 2066 113
1841 2036 2099 2031 112
2172 2054 2049 2046 112
2090 2060 2005 2045 112
1815 2052 2000 2045 111
2106 2049 2004 2038 111
2171 2062 1991 2041 110
1889 2056 1996 2042 110
2044 2061 2058 2074 109
2229 2076 2084 2094 109
1974 2079 2088 2092 108
1937 2051 1932 1999 108
2244 2052 1971 2014 107
2048 2063 2089 2083 107
1875 2080 2165 2125 106
2189 2079 2060 2115 106
2156 2080 2051 2052 105
1884 2067 2113 2066 104
2118 2067 2159 2076 104
2203 2067 2092 2061 103
1908 2051 1993 2020 103
2039 2051 2061 2053 102
2290 2076 2057 2054 102
2010 2055 2016 2047 101
1962 2047 1992 2035 100
2227 2044 1998 2024 100
2040 2045 1990 2031 99
1878 2045 2015 2052 99
2159 2047 2027 2043 98
2136 2054 2020 2035 98
1861 2060 2069 2061 97
2075 2059 2045 2064 96
2211 2077 2011 2076 96
1924 2056 1916 1999 95
1966 2048 2008 2022 94
2225 2059 2208 2149 94
1977 2061 2208 2115 93
1915 2057 2096 2057 92
2216 2056 2006 2012 91
2082 2045 1985 2039 91
1854 2041 2048 2047 90
2138 2045 2037 2030 90
2176 2057 2087 2059 89
1892 2062 2041 2061 89
2054 2068 1999 2055 88
2280 2087 2044 2076 87
1972 2081 2052 2074 87
2002 2076 2015 2052 86
2231 2062 1995 2044 86
1994 2066 2061 2069 85
1872 2063 2095 2081 84
2180 2063 2085 2061 84
2101 2055 1955 2022 83
1851 2050 2004 2030 82
2108 2060 2076 2080 82
2181 2054 2112 2079 81
1896 2049 2085 2053 80
2030 2064 2072 2044 79
2239 2080 2113 2071 79
1977 2068 2008 2048 78
1962 2060 1921 2031 77
2246 2064 1998 2049 76
2068 2061 2138 2085 76
1911 2061 2160 2069 75
2215 2067 2073 2049 74
2160 2075 2003 2046 74
1898 2068 2009 2052 73
2109 2073 2051 2071 72
2216 2068 2079 2095 71
1928 2069 2038 2060 71
2012 2053 1996 2031 70
2215 2044 1949 2019 69
1943 2047 1999 2045 69
1901 2043 2027 2049 68
2194 2050 2049 2063 67
2056 2058 2066 2079 66
1896 2050 2038 2065 66
2170 2060 1985 2047 65
2163 2076 1996 2040 64
1891 2071 2123 2072 63
2076 2060 2210 2080 62
2210 2062 2099 2058 62
1908 2046 1936 2019 61
1977 2044 1970 2024 60
2242 2057 2057 2052 59
2006 2060 2085 2067 59
1919 2048 2045 2065 58
2195 2053 2046 2064 57
2101 2054 2045 2055 56
1886 2044 1989 2026 55
2151 2048 1944 2035 55
2173 2053 1995 2055 54
1881 2051 2112 2076 53
2052 2057 2114 2065 52
2237 2063 2041 2063 52
1942 2059 1948 2029 51
1935 2069 2000 2065 50
2183 2061 2065 2080 49
1981 2064 2131 2064 49
1893 2070 2133 2071 48
2207 2070 2100 2085 47
2122 2059 2043 2063 47
1921 2082 2018 2075 46
2119 2059 2012 2048 45
2201 2069 2025 2063 44
1922 2053 2043 2057 44
2041 2052 2048 2052 43
2245 2056 2064 2069 43
1973 2054 2055 2058 42
1966 2051 2040 2054 41
2225 2057 2028 2048 41
2031 2039 2012 2046 40
1876 2040 2011 2034 39
2187 2046 2030 2049 39
2144 2075 2051 2067 38
1871 2071 2019 2065 37
2061 2061 2017 2055 37
2154 2056 1980 2045 36
1882 2073 2097 2076 35
2032 2081 2157 2093 35
2247 2079 2170 2081 34
2013 2077 2113 2074 34
1941 2055 2040 2043 33
2219 2038 2009 2036 32
2097 2057 2025 2052 32
1951 2098 2056 2093 31
2186 2066 2030 2061 30
2174 2063 2031 2050 30
1881 2042 2013 2035 29
2069 2055 2023 2045 29
2240 2076 2061 2081 28
1951 2059 2042 2062 28
1998 2059 2035 2050 27
2212 2029 2016 2034 27
1987 2039 2024 2033 26
1926 2055 2052 2056 26
2200 2059 2050 2064 25
2093 2057 2043 2055 25
1863 2027 2018 2032 24
2102 2038 2023 2033 24
2139 2040 2016 2033 23
1894 2062 2041 2052 23
2061 2060 2049 2049 22
2230 2067 2072 2080 22
1963 2071 2066 2079 22
1973 2064 2049 2068 21
2218 2058 2051 2059 21
2036 2069 2061 2070 21
1917 2063 2050 2049 20
2178 2059 2051 2079 20
2117 2067 2040 2060 20
1895 2064 2054 2063 19
2104 2057 2046 2054 19
2174 2063 2044 2054 19
1892 2044 2032 2038 18
2012 2042 2039 2050 18
2203 2050 2046 2055 18
1949 2046 2031 2037 18
1995 2094 2065 2068 17
2207 2059 2054 2065 17
2097 2120 2069 2074 17
1913 2059 2046 2055 17
2170 2071 2048 2054 17
2138 2079 2048 2039 16
1882 2052 2054 2034 16
2086 2057 2060 2030 16
2219 2082 2109 2130 16
1932 2079 2030 2097 16
2008 2069 2005 2063 16
2239 2082 2020 2048 16
1986 2062 2041 2048 15
1951 2062 2068 2064 15
2209 2070 2057 2061 15
2080 2069 2056 2053 15
1889 2067 2076 2071 15
2156 2058 2054 2059 15
2158 2068 2030 2057 15
1880 2051 2029 2052 15
2064 2052 2027 2046 15
2208 2069 2045 2062 14
1938 2079 2049 2076 14
1991 2062 2042 2049 14
2231 2058 2035 2033 14
1979 2035 2044 2050 14
1924 2050 2013 2028 13
2215 2077 2074 2091 13
2102 2081 2046 2062 13
1917 2084 2029 2049 13
2141 2064 2072 2072 13
2153 2051 2018 2049 12
1880 2047 2027 2041 12
2056 2048 2023 2039 12
2212 2056 2048 2050 12
1941 2054 2035 2063 11
1974 2053 2047 2058 11
2233 2065 2039 2060 11
2025 2065 2057 2060 11
1883 2044 2040 2040 10
2247 2084 2060 2063 10
2124 2080 2063 2088 10
1885 2068 2050 2039 10
2141 2074 2096 2100 9
2180 2055 2042 2053 9
1894 2062 2037 2053 9
2051 2076 2074 2086 9
2239 2079 2064 2061 9
1952 2047 2023 2044 8
1948 2048 2050 2060 8
2213 2051 2034 2037 8
2037 2049 2033 2052 8
1888 2046 2029 2062 8
2187 2075 2045 2071 7
2150 2077 2072 2076 7
1878 2054 2053 2058 7
2068 2030 2016 2035 7
2213 2061 2053 2060 7
1912 2067 2052 2060 7
2006 2054 2042 2044 6
2274 2098 2070 2083 6
1967 2058 2046 2051 6
1929 2064 2045 2058 6
2242 2072 2040 2063 6
2045 2037 2009 2040 6
1906 2088 2044 2066 6
2158 2053 2032 2048 6
2160 2065 2064 2069 6
1885 2059 2063 2052 6
2086 2065 2062 2053 6
2195 2047 2047 2050 6
1929 2055 2071 2052 6
1986 2049 2078 2057 6
2228 2063 2077 2056 6
1993 2059 2061 2059 6
1919 2068 2032 2052 6
2212 2067 2012 2072 6
2094 2069 2003 2059 6
1886 2060 1954 2049 6
2148 2063 2006 2058 6
2161 2053 1974 2041 6
1901 2071 2031 2072 6
2064 2061 2029 2056 6
2232 2064 1966 2040 6
1943 2048 2000 2031 6
1949 2047 2078 2056 6
2232 2059 2226 2079 6
2013 2054 2304 2078 6
1905 2051 2188 2056 6
2180 2066 2080 2053 7
2102 2068 2114 2097 7
1898 2068 2066 2085 7
2119 2067 2034 2066 7
2203 2072 1967 2044 8
1904 2058 1979 2054 8
2033 2057 1994 2055 8
2238 2063 1952 2033 9
1965 2056 1947 2030 9
1961 2062 2038 2043 9
2217 2070 2144 2111 10
2040 2073 2073 2084 10
1911 2055 1960 2049 11
2194 2057 1901 2038 11
2128 2070 2000 2057 12
1904 2076 2110 2083 12
2110 2072 2106 2061 12
2226 2094 2130 2087 13
1949 2085 1977 2040 13
2060 2103 2041 2120 14
2279 2136 2153 2092 15
1999 2090 2287 2148 15
1968 2089 2259 2110 16
2228 2073 2098 2092 16
2062 2066 2076 2085 17
1853 2033 2024 2034 17
2105 2000 1969 2009 18
2125 2010 1824 1937 19
1866 2026 1928 1994 20
2079 2035 1959 2012 20
2183 2041 2028 2057 21
1901 2043 2007 2048 22
1959 2036 2026 2039 22
2216 2048 2124 2067 23
1989 2050 1980 2011 24
1917 2049 2020 2027 25
2199 2064 1964 2028 26
2113 2083 2098 2058 27
1887 2050 2116 2059 27
2128 2057 2062 2061 28
2149 2049 1969 2053 29
1856 2031 1851 2012 30
2035 2037 1935 2033 31
2234 2079 2169 2086 32
1958 2072 2182 2080 33
1999 2079 2147 2093 33
2254 2085 2020 2072 34
2081 2122 2122 2104 35
1941 2095 2185 2120 36
2229 2074 2008 2061 37
2088 2027 1839 1987 38
1811 2000 1921 2024 39
2039 1983 2124 2013 40
2176 2034 2226 2050 41
1896 2053 1997 2006 42
2059 2106 1963 2068 43
2246 2085 2079 2094 44
1962 2069 2138 2073 45
1953 2069 2013 2048 46
2228 2056 1813 2000 47
2038 2053 1945 2039 48
1892 2072 2137 2080 49
2199 2122 2258 2136 49
2135 2094 1923 2031 50
1875 2106 1855 1992 51
2091 2047 2035 2043 52
2185 2043 2057 2047 53
1891 2014 2056 2053 54
2007 2020 2237 2089 55
2238 2067 2300 2178 56
1979 2062 2179 2111 57
1942 2044 1923 2053 58
2243 2047 1960 2029 59
2083 2057 2087 2053 60
1943 2061 2141 2094 61
2263 2070 1971 2031 62
2255 2051 2010 2041 63
1964 2062 2015 2045 64
2077 2061 1853 2006 65
2148 2069 1922 2079 65
1821 2069 2217 2110 66
1890 2074 2361 2159 67
2180 2080 2015 2066 68
1933 2045 1820 2024 69
1860 2041 1893 2007 70
2168 2050 2168 2080 71
2082 2064 2043 2021 72
1901 2066 2048 2063 73
2156 2068 2207 2092 73
2168 2080 2157 2057 74
1879 2064 2028 2067 75
2060 2063 1929 2053 76
2189 2077 2051 2128 77
1909 2067 2125 2059 78
1971 2059 1905 1992 78
2244 2071 1947 2027 79
2047 2086 2138 2100 80
1937 2083 2100 2057 81
2219 2086 2124 2039 82
2123 2071 2022 2045 83
1860 2049 2125 2106 83
2178 2069 2167 2113 84
2208 2078 1848 2032 85
1917 2055 1813 1998 86
2047 2052 2010 2019 86
2237 2077 2111 2096 87
1959 2048 1918 1992 88
1973 2049 1968 2013 89
2223 2059 2352 2136 89
2041 2075 2434 2160 90
1900 2071 1934 2049 91
2223 2065 1727 2065 91
2141 2067 2056 2036 92
1861 2064 2356 2116 93
2092 2068 2225 2065 94
2192 2055 1953 1983 94
1904 2047 1952 2034 95
2001 2045 2002 2013 96
2181 2055 2198 2133 96
2011 2062 1990 2057 97
1952 2046 1707 1993 98
2260 2060 1946 2074 98
2072 2073 2270 2148 99
1888 2061 2225 2134 99
2165 2050 1936 2041 100
2159 2045 1848 1965 101
1892 2054 2279 2060 101
2078 2063 2296 2079 102
2218 2075 2053 2076 102
1898 2021 1449 1888 103
1982 2046 2048 2046 104
2212 2064 2295 2169 104
2005 2072 1981 2077 105
1927 2049 2016 2016 105
2220 2062 2183 2044 106
2080 2071 2378 2119 107
1876 2058 2216 2071 107
2137 2029 1686 1950 108
2164 2060 1928 2008 108
1909 2081 2241 2173 109
2112 2075 2070 2113 109
2233 2057 1783 2008 110
1974 2053 1695 1981 110
1999 2057 2178 2120 111
2260 2073 2218 2030 111
2010 2057 1911 1982 112
1881 2034 2026 1980 112
2195 2068 2179 2160 113
2078 2064 2227 2104 113
1868 2073 2185 2099 114
2112 2057 1804 2044 114
2152 2078 2039 2085 115
1838 2050 2271 2101 115
1998 2060 2113 2034 116
2205 2065 2154 2009 116
1916 2064 2004 2035 117
1941 2069 2056 2090 117
2196 2045 1831 2000 118
1985 2042 1776 2001 118
1888 2041 1897 2026 119
2189 2068 2185 2127 119
2128 2080 2196 2070 119
1873 2021 1557 1905 120
2103 2034 1898 2089 120
2217 2080 2453 2170 121
1912 2068 2294 2094 121
1995 2031 2045 2022 121
2260 2041 1860 2018 122
1971 2063 2180 2088 122
1951 2069 2312 2102 122
2249 2043 1848 1977 123
2083 2049 1803 1988 123
1878 2056 2065 2050 123
2210 2049 2137 2081 123
2163 2048 1955 2066 124
1883 2059 1853 2032 124
2061 2046 2039 2029 124
2207 2076 2046 2054 124
1895 2047 1973 2001 125
1965 2038 1997 2020 125
2243 2062 2073 2087 125
1967 2048 2015 2034 125
1930 2062 2080 2070 125
2272 2065 2064 2035 125
2100 2072 2220 2086 125
1899 2071 2156 2103 125
2189 2073 1947 2039 125
2168 2079 1936 2056 125
1880 2066 2112 2053 125
2078 2053 2063 2028 125
2213 2072 2066 2085 125
1928 2053 1995 2048 125
1985 2080 2054 2062 125
2256 2076 2064 2068 125
2000 2058 2012 2040 125
1902 2053 2005 2058 125
2185 2062 2032 2060 125
2134 2062 2024 2044 125
1867 2048 1977 2039 125
2124 2062 2053 2058 124
2232 2058 1984 2025 124
1896 2057 1992 2039 124
2094 2060 2057 2087 124
2261 2066 1963 2064 124
1950 2063 2004 2072 124
1952 2061 2201 2087 123
2231 2056 2117 2038 123
2036 2084 2252 2124 123
1842 2047 1886 2005 123
2195 2085 2111 2111 122
2122 2077 2090 2079 122
1839 2066 2082 2053 121
2075 2076 2024 2051 121
2189 2061 1998 2025 121
1865 2052 2060 2038 120
2025 2056 2026 2056 120
2244 2075 2051 2086 120
1956 2076 2068 2086 119
1952 2073 2044 2067 119
2247 2066 2038 2061 118
2059 2065 2037 2050 118
1884 2053 1991 2044 117
2164 2050 1927 2026 117
2136 2051 1984 2033 117
1883 2046 2045 2000 116
2090 2045 2145 2079 115
2213 2060 2099 2061 115
1912 2057 2039 2050 114
2021 2066 2044 2057 114
2247 2061 2070 2056 113
1983 2053 2091 2082 113
1903 2059 2121 2090 112
2197 2067 2075 2059 112
2017 2061 2023 2031 111
1833 2055 2056 2055 111
2157 2057 2000 2052 110
2137 2060 1994 2045 110
1894 2055 2034 2059 109
2077 2062 2018 2046 108
2218 2072 2003 2056 108
1940 2073 2024 2062 107
1995 2068 2046 2067 107
2240 2059 2048 2050 106
2022 2062 1966 2017 105
1907 2038 1988 2053 105
2219 2064 2066 2089 104
2094 2057 2122 2079 103
1873 2057 2135 2063 103
2154 2069 2129 2070 102
2167 2060 2122 2093 101
1890 2052 2113 2066 100
2045 2037 2027 2003 100
2224 2064 2013 2025 99
1952 2052 2005 2041 99
1969 2057 2001 2039 98
2214 2067 2015 2042 98
2042 2073 2028 2068 97
1911 2059 2019 2047 97
2208 2057 2026 2049 96
2117 2056 2020 2047 96
1863 2052 2001 2043 95
2095 2062 1950 2037 95
2170 2043 2012 2043 94
1869 2036 1982 2015 93
2018 2042 2057 2019 93
2232 2067 2155 2096 92
1957 2064 2112 2075 91
1924 2053 2071 2072 91
2198 2051 2082 2059 90
2027 2053 2080 2056 89
1859 2049 2098 2049 89
2183 2064 2100 2063 88
2125 2069 2033 2051 87
1862 2070 2052 2069 87
2132 2068 2025 2060 86
2218 2065 2004 2044 85
1908 2048 1994 2027 85
2004 2043 1976 2008 84
2239 2048 1993 2050 83
1984 2055 1964 2046 83
1942 2055 1984 2050 82
2246 2065 2068 2066 81
2082 2072 2124 2059 81
1904 2071 2121 2048 80
2192 2070 2090 2069 79
2179 2075 2097 2099 79
1919 2082 2090 2097 78
2126 2086 2099 2112 77
2255 2093 2100 2078 76
1942 2079 2096 2077 76
1986 2071 2069 2062 75
2221 2064 2015 2043 74
1994 2044 1992 2031 74
1894 2031 1992 2024 73
2201 2044 2003 2032 72
2083 2047 1988 2027 72
1864 2032 1988 2027 71
2136 2039 2002 2036 70
2167 2045 1954 2035 69
1884 2048 1906 2005 69
2024 2053 1976 2029 68
2244 2065 2091 2054 67
1924 2048 2196 2108 67
1974 2055 2136 2097 66
2237 2062 2085 2068 65
2029 2067 2089 2075 64
1904 2063 2118 2061 64
2197 2063 2096 2074 63
2127 2071 2057 2061 62
1893 2071 2012 2054 62
2126 2074 2009 2061 61
2199 2080 2020 2069 60
1908 2079 2043 2065 60
2040 2094 2017 2072 59
2240 2079 2043 2072 58
1952 2065 2007 2054 58
1949 2050 1988 2045 57
2183 2029 1952 2029 56
2032 2038 2003 2047 56
1846 2015 2046 2018 55
2129 2017 2100 2020 54
2092 2015 2069 2015 54
1879 2047 1980 2031 53
2104 2061 1918 2046 52
2230 2071 2048 2077 52
1928 2066 2187 2075 51
2038 2056 2234 2083 50
2221 2077 2125 2071 49
1943 2070 2011 2053 49
1887 2063 2000 2054 48
2205 2071 2030 2057 48
2090 2056 2005 2058 47
1918 2060 1980 2053 46
2206 2080 2028 2096 46
2167 2064 2024 2063 45
1882 2055 2041 2055 45
2073 2051 2052 2045 44
2207 2049 2040 2039 43
1923 2045 2048 2038 43
1979 2043 2058 2044 42
2214 2044 2053 2044 42
2001 2054 2036 2051 41
1926 2056 2029 2060 40
2218 2059 1971 2056 40
2079 2037 1949 2031 39
1892 2060 1984 2067 39
2141 2064 2122 2076 38
2161 2076 2187 2081 37
1878 2067 2133 2053 37
2023 2063 2025 2047 36
2193 2064 2006 2058 36
1925 2050 2068 2049 35
1980 2068 2113 2069 35
2244 2076 2074 2072 34
2024 2056 2009 2045 33
1932 2057 2015 2055 33
2193 2048 2021 2048 32
2145 2075 2050 2078 32
1905 2053 2027 2062 31
2152 2070 2043 2069 31
2216 2054 2033 2055 30
1909 2043 2017 2035 30
2013 2030 2019 2035 29
2200 2043 2023 2032 29
1925 2018 2003 2018 28
1949 2063 2027 2038 28
2232 2062 2054 2068 28
2071 2078 2064 2075 27
1916 2079 2062 2073 27
2152 2045 2038 2062 26
2136 2065 2044 2061 26
1878 2051 2044 2050 25
2106 2064 2045 2058 25
2213 2076 2055 2071 24
1941 2081 2062 2067 24
2024 2074 2062 2065 24
2231 2066 2081 2091 23
2005 2072 2058 2072 23
1945 2065 2042 2060 22
2210 2075 2055 2073 22
2016 2018 2002 2032 22
1905 2055 2057 2080 21
2137 2055 2047 2053 21
2133 2051 2025 2047 20
1904 2052 2041 2046 20
2063 2048 2026 2030 20
2196 2064 2050 2065 19
1943 2061 2047 2058 19
2013 2076 2064 2076 19
2227 2076 2066 2075 18
2000 2072 2060 2061 18
1930 2054 2032 2033 18
2181 2053 2054 2071 17
2080 2058 2048 2070 17
1881 2045 2032 2042 17
2196 2110 2085 2085 17
2171 2082 2060 2066 16
1906 2079 2055 2052 16
2064 2065 2058 2052 16
2198 2056 2064 2071 16
1928 2061 2036 2053 15
1978 2057 2015 2053 15
2214 2054 2015 2036 15
2018 2059 2045 2049 15
1904 2053 2048 2056 15
2196 2074 2051 2060 14
2118 2083 2063 2069 14
1917 2085 2056 2067 14
2106 2048 2037 2046 14
2183 2068 2043 2050 14
1898 2057 2035 2042 13
2016 2041 2041 2049 13
2209 2063 2023 2035 13
1968 2055 2031 2031 13
1953 2055 2047 2039 13
2222 2070 2047 2073 13
2065 2081 2046 2069 12
1903 2055 2046 2060 12
2179 2063 2067 2078 12
2122 2049 2020 2048 12
1900 2064 2029 2051 12
2110 2069 2040 2056 12
2195 2065 2079 2082 11
1907 2060 2060 2071 11
2031 2069 2053 2062 11
2207 2061 2048 2072 11
1970 2052 2036 2027 10
1929 2052 2043 2047 10
2206 2050 2049 2076 10
2031 2033 2018 2043 10
1881 2051 2027 2056 9
2163 2068 2036 2050 9
2162 2080 2057 2060 9
1893 2056 2043 2054 9
2101 2079 2052 2059 9
2213 2072 2048 2048 9
1947 2080 2056 2065 8
1997 2063 2055 2076 8
2218 2053 2034 2048 8
1992 2057 2040 2053 8
1947 2073 2049 2057 8
2211 2061 2045 2061 8
2091 2072 2053 2066 7
1872 2043 2019 2045 7
2164 2078 2042 2061 7
2163 2061 2044 2057 7
1898 2063 2049 2063 7
2051 2046 2028 2044 7
2229 2070 1997 2042 7
1930 2048 1987 2040 7
1968 2062 2026 2048 7
2238 2062 2047 2056 7
2015 2051 2037 2054 7
1887 2040 2042 2044 7
2200 2066 2103 2079 7
2108 2058 2150 2052 7
1873 2052 2123 2045 7
2125 2055 2054 2036 7
2183 2062 1989 2046 7
1900 2060 2034 2062 8
2031 2050 2068 2058 8
2224 2059 2079 2063 8
1953 2061 1946 2013 8
1950 2058 1968 2041 8
2229 2063 2007 2037 8
2031 2068 2196 2125 8
1911 2058 2080 2063 9
2189 2063 1938 2040 9
2130 2071 1911 2040 9
1873 2062 2141 2075 9
2098 2065 2252 2129 10
2186 2065 2231 2103 10
1911 2056 2088 2069 10
2023 2049 2023 2043 11
2244 2072 1989 2036 11
1992 2063 1922 2027 12
1956 2068 1817 2007 12
2206 2056 1758 1994 13
2055 2071 1855 2031 13
1913 2065 2075 2076 14
2167 2065 2329 2125 14
2168 2066 2264 2104 15
1891 2068 2213 2066 16
2075 2080 2166 2064 16
2218 2086 2153 2085 17
1963 2079 2027 2063 18
2018 2088 1929 2050 18
2250 2090 1998 2080 19
2027 2089 2062 2065 20
1953 2088 2021 2065 21
2197 2072 1871 2031 21
2072 2054 1931 2061 22
1894 2061 2019 2088 23
2159 2066 2022 2060 24
2157 2068 2013 2076 25
1935 2082 2120 2073 25
2065 2072 2313 2089 26
2214 2089 2353 2114 27
1976 2067 2063 2025 28
1960 2025 1879 1990 29
2173 2027 1801 1991 30
1998 2028 1925 2002 31
1876 2025 1949 2044 31
2152 2029 2118 2057 32
2086 2042 2130 2049 33
1875 2048 2055 2018 34
2107 2057 1997 2050 35
2186 2052 1957 2047 36
1893 2042 2031 2044 37
2032 2048 1978 2035 38
2220 2057 1888 2042 38
1975 2073 1919 2052 39
1993 2089 2148 2075 40
2239 2098 2236 2109 41
2081 2089 2113 2042 42
1909 2047 2047 2058 43
2151 2038 2112 2048 44
2068 2028 2246 2058 45
1839 2020 2156 2034 46
2065 2021 1841 1974 46
2175 2038 1729 1972 47
1899 2064 1943 2053 48
2004 2062 1901 2017 49
2232 2078 1976 2040 50
1977 2085 2094 2054 51
1943 2082 2245 2117 52
2209 2075 2171 2080 53
2057 2084 2037 2032 54
1887 2071 2012 2030 55
2183 2079 1986 2068 56
2155 2057 2170 2126 57
1941 2039 2141 2089 57
2243 2041 2127 2073 58
2402 2062 2051 2075 59
1996 2046 1855 2026 60
1962 2043 1939 2036 61
2108 2063 2132 2091 62
1874 2049 1919 1967 63
1846 2039 1775 1969 64
2166 2062 2111 2071 65
2009 2081 2336 2139 66
1812 2077 2350 2153 67
2136 2068 2007 2042 68
2149 2057 1787 2006 69
1837 2054 2009 2064 70
2060 2061 2247 2091 70
2224 2073 2037 2036 71
1950 2049 1854 1989 72
1989 2055 1905 2029 73
2245 2066 2152 2101 74
2034 2071 2230 2106 75
1914 2072 2179 2092 76
2213 2074 2084 2072 77
2111 2096 2033 2047 78
1886 2072 1803 1984 79
2113 2058 1863 2015 79
2213 2077 2136 2081 80
1901 2075 2095 2081 81
2063 2069 1869 1979 82
2242 2080 1824 1949 83
1973 2084 2293 2178 84
1969 2075 2147 2111 85
2254 2075 2173 2116 85
2086 2065 2066 2078 86
1911 2060 2141 2061 87
2200 2052 1791 1988 88
2135 2053 1861 2027 89
1914 2077 2191 2101 89
2156 2087 2147 2046 90
2201 2093 2018 2031 91
1922 2078 2060 2101 91
2056 2082 2276 2190 92
2245 2082 2129 2120 93
1978 2051 1857 1996 94
1918 2036 2001 2002 94
2183 2044 2154 2081 95
2022 2031 1989 2014 96
1855 2011 1869 1959 97
2131 2048 2177 2048 97
2143 2071 2239 2133 98
1888 2048 1955 2047 99
2109 2047 1851 2015 99
2212 2047 2021 2076 100
1911 2044 1947 1977 100
1981 2039 1956 2026 101
2235 2063 2165 2045 102
1990 2059 2266 2096 102
1934 2081 2039 2081 103
2224 2064 1817 1996 104
2105 2081 2201 2160 104
1888 2068 2023 2043 105
2089 2029 1936 2024 105
2178 2047 1985 1971 106
1887 2056 2352 2157 107
2074 2073 2254 2102 107
2232 2051 1781 1967 108
1961 2053 1960 2070 108
1956 2052 2284 2134 109
2238 2063 2131 2076 109
2004 2037 1866 1998 110
1906 2042 1982 1986 110
2253 2076 2078 2072 111
2123 2066 2083 2062 111
1899 2071 2093 2093 112
2117 2069 2152 2105 112
2173 2077 2146 2093 113
1879 2045 1858 1966 113
2023 2046 1912 2014 114
2210 2062 2136 2076 114
1908 2056 2112 2069 115
1919 2048 1916 2011 115
2186 2047 1917 2006 116
1994 2055 1969 2043 116
1856 2047 2039 2039 116
2179 2069 2072 2076 117
2119 2057 2107 2061 117
1881 2068 2033 2073 117
2086 2056 2111 2061 118
2213 2076 2093 2046 118
1908 2064 2163 2056 118
2021 2063 2078 2056 118
2274 2075 1985 2060 118
1990 2062 2025 2065 119
1960 2060 2000 2062 119
2236 2052 1971 2058 119
2075 2052 1975 2015 119
1893 2055 2028 2027 119
2194 2063 2035 2042 119
2178 2067 2095 2070 119
1892 2061 2121 2094 119
2097 2061 2104 2081 119
2221 2067 2078 2064 119
1909 2047 2083 2071 119
1988 2041 2040 2039 119
2243 2056 1935 2017 119
1980 2048 1829 2063 119
1927 2059 2080 2041 118
2202 2045 2184 2068 118
2095 2065 2178 2051 118
1872 2046 2045 2035 118
2171 2063 1995 2061 118
2159 2068 2042 2058 117
1867 2059 2034 2047 117
2076 2069 1999 2062 117
2295 2084 2066 2075 117
1944 2057 2026 2035 116
2033 2067 2073 2057 116
2247 2078 2012 2061 116
2012 2071 1983 2054 116
1949 2070 2064 2066 115
2242 2080 2098 2078 115
2124 2076 2188 2121 114
1876 2068 2090 2080 114
2121 2049 2068 2063 114
2159 2068 2103 2070 113
1861 2060 2066 2077 113
2017 2048 1983 2036 112
2182 2044 1992 2014 112
1891 2042 2093 2043 111
1905 2045 2117 2060 111
2202 2048 2037 2036 110
2018 2063 1987 2048 110
1900 2054 2021 2055 109
2198 2069 2037 2061 109
2152 2071 2016 2058 108
1884 2070 2005 2048 108
2147 2071 1982 2027 107
2206 2078 2014 2074 107
1920 2070 1989 2082 106
2024 2065 2111 2094 106
2246 2063 2092 2055 105
1969 2050 2063 2021 104
1911 2050 2199 2117 104
2214 2052 2114 2097 103
2053 2060 2105 2082 102
1888 2036 2010 2026 102
2184 2047 1975 2019 101
2163 2058 2029 2048 101
1896 2060 2022 2047 100
2097 2059 1998 2033 100
2217 2054 2018 2051 99
1901 2045 2026 2043 99
1984 2050 1996 2034 98
2234 2063 2008 2051 97
1983 2062 2044 2069 97
1924 2065 2067 2061 96
2215 2063 2020 2046 96
2082 2063 2008 2039 95
1881 2057 2075 2078 94
2155 2054 2084 2070 94
2189 2084 2126 2068 93
1896 2055 2107 2063 92
2065 2048 2109 2063 91
2223 2057 2111 2057 91
1914 2044 2055 2044 90
1947 2047 2031 2031 89
2191 2043 2001 2036 89
1976 2050 1991 2032 88
1913 2052 2011 2040 87
2189 2056 2018 2040 87
2131 2056 2016 2041 86
1883 2052 2036 2050 85
2119 2061 2046 2053 85
2182 2067 2029 2062 84
1889 2071 1996 2045 83
2035 2067 2006 2068 83
2248 2081 2064 2091 82
1963 2067 2093 2088 81
1968 2065 2103 2065 80
2239 2056 2062 2047 80
2030 2057 2120 2091 79
1892 2049 2080 2057 78
2208 2054 2055 2080 77
2132 2062 2022 2039 76
1877 2061 2070 2052 76
2113 2065 2136 2069 75
2211 2077 2091 2058 74
1920 2077 2028 2065 73
2054 2065 2018 2071 73
2269 2077 2042 2072 72
2011 2075 2035 2075 71
1980 2080 2027 2073 70
2261 2086 2046 2070 70
2090 2081 2040 2073 69
1893 2050 1978 2042 68
2168 2031 1928 2019 67
2109 2016 1962 2011 67
1839 2014 2030 2025 66
2038 2009 2120 2029 65
2156 2031 2085 2030 65
1869 2029 2105 2037 64
1970 2039 2107 2063 63
2222 2057 2051 2063 62
1985 2067 1990 2055 62
1905 2061 1983 2046 61
2219 2069 2036 2044 60
2090 2071 2114 2064 59
1890 2062 2048 2038 59
2190 2065 2048 2059 58
2210 2072 2031 2069 57
1921 2083 2040 2078 57
2091 2081 2052 2083 56
2233 2085 2056 2087 55
1940 2064 2036 2060 55
1975 2055 2015 2055 54
2212 2045 2037 2049 53
1991 2046 2014 2040 52
1890 2033 2024 2029 52
2175 2037 2027 2037 51
2081 2037 2031 2032 50
1836 2046 2044 2046 49
2051 2048 2011 2049 49
2120 2057 1956 2028 48
1891 2049 2008 2050 47
2064 2056 2089 2072 46
2240 2065 2112 2065 45
1968 2055 2043 2043 44
1944 2060 1995 2034 44
2252 2083 2107 2084 43
2073 2072 2136 2080 42
1935 2069 2123 2065 41
2203 2068 2055 2071 40
2135 2058 2007 2060 39
1901 2048 2025 2057 39
2101 2050 2039 2047 38
2201 2070 2084 2073 37
1926 2077 2056 2065 36
1997 2058 2025 2045 36
2195 2057 2012 2043 35
1923 2031 2008 2028 34
1914 2053 2028 2057 34
2192 2043 2021 2051 33
2093 2088 2051 2063 32
1860 2063 2014 2034 32
2187 2066 2050 2065 31
2144 2037 2014 2036 31
1896 2055 2044 2049 30
2117 2073 2060 2070 30
2227 2069 2052 2064 29
1930 2057 2045 2044 28
1999 2054 2039 2053 28
2248 2078 2067 2076 27
2013 2076 2061 2077 27
1929 2057 2036 2048 26
2189 2042 2031 2049 26
2067 2039 2016 2033 25
1880 2038 2033 2045 25
2168 2083 2069 2071 24
2195 2083 2084 2082 24
1899 2060 2057 2069 23
2059 2064 2019 2036 23
2212 2059 2029 2041 22
1940 2061 2050 2071 22
1966 2061 2065 2064 22
2221 2052 2042 2095 21
2006 2053 2007 2051 21
1866 2018 1987 2014 20
2102 1991 1970 1992 20
2098 2048 2035 2041 20
1895 2060 2049 2063 19
2123 2069 2056 2066 19
2169 2059 2059 2063 18
1930 2071 2075 2080 18
2049 2080 2072 2073 18
2232 2080 2073 2080 17
1972 2072 2053 2055 17
1949 2049 2048 2049 17
2241 2090 2088 2093 16
2121 2148 2139 2146 16
1905 2064 2038 2039 16
2210 2087 2099 2116 15
2063 1991 1924 1966 15
1922 2099 2079 2116 15
2104 2064 2022 2042 15
2178 2043 2009 2020 15
1889 2038 2026 2043 14
1962 2016 1993 2006 14
2142 1994 1980 1987 14
1969 2029 2021 2024 14
1914 2037 2028 2033 13
2239 2097 2092 2097 13
2079 2069 2071 2081 13
1922 2079 2062 2066 12
2195 2102 2091 2096 12
2133 2053 2036 2039 12
1883 2044 2040 2044 12
2074 2045 2034 2036 11
2193 2056 2048 2066 11
1907 2037 2032 2039 11
1977 2039 1994 2020 10
2198 2040 2033 2037 10
1994 2062 2001 1995 10
1924 2062 2073 2081 10
2247 2114 2100 2108 9
2098 2084 2045 2051 9
1902 2063 2023 2069 9
2132 2049 2052 2083 9
2144 2051 2023 2054 8
1891 2056 2037 2052 8
2069 2063 2039 2050 8
2219 2051 2056 2056 8
1943 2060 2054 2058 7
1951 2035 2040 2032 7
2215 2049 2047 2038 7
2022 2062 2029 2045 6
1925 2074 2055 2050 6
2186 2055 2051 2069 6
2097 2044 2033 2042 6
1856 2030 2015 2025 5
2120 2062 2029 2038 5
2205 2088 2057 2064 5
1915 2068 2060 2096 5
2096 2110 2086 2111 5
2227 2067 2059 2067 4
1959 2057 2047 2055 4
1949 2041 2026 2037 4
2210 2061 2043 2055 4
2059 2085 2067 2071 4
1934 2085 2047 2052 4
2157 2033 2018 2022 4
2112 2058 2030 2044 3
1868 2042 2044 2037 3
2097 2049 2045 2042 3
2173 2042 2025 2046 3
1893 2042 2023 2037 3
1994 2040 2016 2038 3
2214 2049 2013 2047 3
1993 2070 2024 2057 3
1927 2056 2042 2056 3
2195 2052 2047 2047 3
2084 2081 2058 2062 3
1887 2063 1997 2037 3
2173 2069 2064 2065 3
2159 2062 2090 2075 3
1887 2058 2098 2061 3
2085 2061 2069 2064 3
2212 2069 2002 2048 3
1935 2062 1989 2051 4
2008 2082 1988 2053 4
2234 2061 2020 2071 4
2013 2063 2122 2072 4
1921 2041 2174 2067 4
2218 2064 2151 2063 4
2094 2075 2064 2047 5
1879 2063 1981 2039 5
2164 2071 1997 2056 5
2169 2070 2037 2111 5
1880 2051 1966 2049 6
2057 2054 2048 2088 6
2216 2059 2030 2071 6
1935 2056 2001 2049 7
1973 2066 1961 2040 7
2239 2063 1945 2008 7
2062 2090 2144 2087 8
1928 2082 2165 2104 8
2236 2086 2202 2109 9
2117 2069 2094 2095 9
1886 2079 2121 2084 10
2126 2057 2172 2088 10
2184 2053 2110 2036 11
1870 2031 1999 2005 11
2023 2037 1978 2014 12
2224 2057 2006 2039 12
1972 2069 1980 2043 13
1982 2073 1929 2037 13
2246 2083 1883 2059 14
2071 2088 2007 2062 15
1969 2143 2059 2152 15
2235 2116 1943 2053 16
2158 2083 1895 2041 17
1879 2054 2042 2056 17
2036 2028 2339 2140 18
2169 2046 2303 2106 18
1886 2038 2144 2057 19
2020 2060 2071 2052 20
2240 2088 2128 2071 20
1955 2036 2080 2010 21
1936 2041 1916 1988 22
2146 2008 1906 2015 23
2037 2033 1982 2036 23
1912 2057 2109 2080 24
2154 2065 2003 2029 25
2120 2032 1917 1994 26
1848 2011 1903 1999 27
2026 2005 1944 2002 28
2195 2036 1986 2019 28
1948 2069 1977 1989 29
1971 2049 2103 2074 30
2215 2061 2161 2112 31
2013 2072 2111 2128 32
1970 2066 1961 2071 33
2228 2091 1872 2042 33
2101 2083 1983 2068 34
1898 2057 2136 2071 35
2139 2062 2218 2077 36
2155 2061 2156 2031 37
1897 2043 2076 2033 37
2061 2051 2026 2034 38
2274 2149 2008 2122 39
2007 2119 1972 2115 40
2071 2123 2079 2107 41
2222 2066 2142 2102 42
1984 2042 2214 2070 42
1837 2006 2094 2009 43
2101 1993 2000 1959 44
2042 2004 1947 1959 45
1884 2056 2040 2037 46
2109 2055 2013 2029 47
2164 2047 1893 1987 48
1857 2019 1777 1978 49
1999 2056 2047 2045 49
2213 2085 2318 2186 50
1971 2081 2188 2077 51
1971 2091 1939 2054 52
2252 2112 1915 2041 53
2061 2116 1958 2037 54
1947 2075 1962 2025 55
2279 2060 2074 2088 56
2387 2043 2173 2067 57
1968 2031 2205 2121 57
2111 2033 2081 2086 58
2086 2039 2017 2040 59
1755 2027 1930 2007 60
1932 2052 2098 2065 61
2196 2078 2173 2102 62
1931 2061 2340 2141 63
1886 2072 2118 2085 64
2194 2071 1829 2001 65
2040 2068 1861 2040 65
1861 2057 2136 2071 66
2149 2061 1971 2041 67
2131 2045 1694 1957 68
1869 2058 1968 2013 69
2106 2062 2412 2153 70
2246 2077 2354 2122 71
1951 2059 2018 2056 72
1987 2048 1901 2048 73
2194 2066 2061 2056 73
2024 2075 2047 2057 74
1926 2068 1945 1976 75
2231 2083 2116 2091 76
2098 2083 2144 2074 77
1853 2078 1975 2071 78
2140 2059 1954 2033 78
2175 2065 2057 2027 79
1886 2061 2093 2066 80
2048 2061 1954 2046 81
2237 2070 1872 2019 82
1958 2063 1967 2051 82
1996 2057 1879 1959 83
2254 2104 2218 2100 84
2055 2081 2443 2217 84
1931 2067 2357 2146 85
2210 2065 2006 2021 86
2125 2050 1694 1965 87
1873 2063 1873 2022 87
2137 2062 2179 2090 88
2202 2067 2326 2130 89
1903 2052 1944 2041 89
2044 2065 1990 2069 90
2262 2077 2172 2106 91
1980 2072 2132 2040 91
1972 2051 1865 2000 92
2239 2047 1797 2031 93
2028 2049 2102 2073 93
1865 2045 2254 2054 94
2185 2065 2051 2078 95
2126 2061 1638 2014 95
1865 2056 1985 2045 96
2102 2053 2477 2199 97
2193 2049 2295 2051 97
1887 2037 1897 1964 98
2001 2035 1837 2000 98
2246 2059 2105 2071 99
1975 2075 2128 2108 100
1949 2052 1767 2004 100
2240 2071 1980 2072 101
2063 2070 2326 2128 101
1918 2059 2131 2053 102
2168 2055 1926 1987 103
2189 2061 1889 2021 103
1871 2050 1998 2008 104
2045 2039 2022 2032 104
2228 2065 2064 2085 105
1893 2048 2240 2101 105
1990 2064 2074 1985 106
2243 2063 1988 2017 107
1989 2066 2084 2118 107
1924 2065 2255 2164 108
2219 2062 1977 2035 108
2086 2043 1786 1973 109
1873 2037 2040 2056 109
2168 2061 2246 2110 110
2183 2045 1799 1965 110
1880 2045 1762 2012 111
2083 2079 2093 2062 112
2272 2134 2445 2204 112
1943 2091 2190 2101 112
2006 2039 1662 1961 113
2205 2052 2040 2022 113
1945 2025 2170 2044 114
1884 2071 2323 2153 114
2139 2030 2020 2017 115
2061 2057 2039 2049 115
1843 2072 2081 2036 116
2097 2056 2001 2046 116
2156 2062 2038 2058 117
1859 2053 2011 2050 117
1993 2009 1633 1893 118
2190 2046 1919 2006 118
1939 2077 2216 2125 119
1960 2074 2288 2133 119
2254 2060 1953 2003 119
2060 2051 1796 1993 120
1889 2049 1866 2059 120
2197 2071 2253 2100 120
2156 2073 2229 2077 121
1838 2011 2090 2015 121
2137 2043 1924 1997 121
2221 2042 1918 2047 121
1931 2073 2119 2081 122
2012 2033 2131 2098 122
2287 2089 2078 2084 122
2028 2098 2061 2059 122
1956 2058 2066 2055 122
2266 2070 2034 2053 123
2091 2072 2033 2060 123
1870 2041 2051 2034 123
2147 2047 2006 2032 123
2190 2057 1933 2043 123
1891 2068 1996 2053 123
2096 2072 2174 2097 123
2225 2054 2113 2076 123
1894 2044 2080 2071 123
1954 2027 1942 2008 123
2238 2057 2101 2094 123
1957 2045 2114 2074 123
1898 2084 1999 2070 123
2264 2069 2031 2053 123
2121 2073 2064 2068 123
1913 2068 2030 2047 123
2149 2076 2128 2107 123
2185 2089 2086 2077 123
1885 2080 2105 2083 122
2077 2075 2054 2058 122
2251 2071 1997 2033 122
1905 2057 2016 2043 122
1937 2047 2029 2053 122
2277 2057 2024 2043 122
2007 2050 1978 2034 122
1885 2045 2013 2029 121
2219 2047 2028 2055 121
2112 2066 2095 2083 121
1865 2064 2080 2078 121
2127 2061 1987 2025 120
2206 2077 2033 2065 120
1884 2058 2062 2073 120
2008 2047 2054 2056 119
2224 2053 2194 2134 119
1942 2052 2034 2056 118
1946 2056 2076 2035 118
2265 2078 2103 2052 118
2062 2074 2126 2087 117
1886 2045 2067 2069 117
2166 2041 1970 2038 116
2134 2043 1990 2022 116
1880 2064 2071 2061 115
2114 2077 2045 2062 115
2264 2077 1994 2045 114
1912 2071 2031 2064 114
2013 2067 2028 2048 114
2232 2075 2013 2057 113
1940 2061 2001 2041 112
1893 2078 2085 2103 112
2218 2078 2056 2053 111
2028 2065 2076 2080 111
1852 2064 1995 2029 110
2127 2069 2033 2071 110
2101 2042 2128 2085 109
1854 2071 2152 2090 108
2073 2049 2125 2063 108
2219 2057 2025 2031 107
1903 2036 1984 2011 106
1973 2037 2006 2039 106
2231 2040 1997 2024 105
1996 2043 1999 2029 105
1914 2037 1997 2025 104
2239 2047 1999 2032 103
2107 2059 2007 2043 103
1896 2051 1993 2037 102
2162 2060 2025 2065 101
2176 2070 2071 2107 101
1918 2072 1894 2018 100
2075 2062 2027 2055 99
2234 2081 2183 2115 98
1935 2071 2266 2146 97
2009 2087 2208 2132 97
2237 2083 2055 2057 96
2019 2064 2013 2039 95
1961 2054 2042 2057 94
2208 2052 1998 2038 94
2117 2041 2007 2022 93
1849 2029 2020 2026 92
2052 2025 2007 2020 91
2129 2039 2016 2024 91
1846 2033 1999 2022 90
1971 2035 2018 2033 89
2183 2051 2029 2046 88
1925 2064 1916 2031 88
1938 2070 1975 2060 87
2232 2074 2080 2087 86
2061 2076 2171 2099 85
1890 2059 2172 2095 84
2216 2056 2070 2041 83
2158 2060 2086 2070 82
1916 2080 2128 2084 81
2171 2099 2111 2096 81
2294 2114 2076 2094 80
1963 2094 2074 2077 79
2047 2081 2060 2073 78
2246 2064 2004 2038 77
1970 2056 2009 2034 76
1919 2056 2020 2053 75
2210 2054 1999 2052 74
2054 2045 1977 2033 73
1880 2024 1899 2000 72
2141 2017 1941 1993 71
2130 2021 2033 2025 70
1874 2026 2079 2049 69
2070 2037 2057 2057 68
2214 2041 2081 2061 67
1899 2043 2144 2045 66
1977 2063 2205 2072 65
2226 2077 2091 2075 64
1983 2087 2015 2081 63
1949 2100 2026 2083 62
2248 2076 2051 2062 62
2099 2073 2045 2059 61
1904 2063 2020 2052 60
2136 2039 1998 2035 59
2153 2050 1989 2042 58
1877 2036 1942 2029 57
2021 2016 1892 2010 56
2204 2033 2014 2056 55
1905 2028 2093 2038 54
1949 2017 2063 2045 53
2216 2040 1913 2020 53
2041 2063 1957 2048 52
1906 2060 2086 2076 51
2181 2057 2278 2095 50
2110 2053 2262 2110 49
1903 2069 2153 2085 48
2136 2067 2045 2058 47
2194 2068 1990 2046 47
1884 2058 1995 2048 46
1981 2068 1998 2049 45
2145 2043 1977 2036 44
1905 2057 1997 2047 44
1897 2050 2010 2046 43
2236 2062 2040 2071 43
2079 2069 2044 2067 42
1945 2064 2039 2059 42
2210 2031 2031 2048 41
2183 2073 2041 2055 41
1945 2066 2055 2069 40
2131 2062 2044 2062 39
2197 2054 2036 2049 39
1896 2046 2023 2044 38
1973 2057 2029 2042 38
2259 2095 2081 2083 38
1985 2056 2022 2048 37
1955 2068 2035 2065 36
2209 2067 1990 2048 36
2098 2077 2093 2087 35
1896 2062 2105 2060 35
2169 2073 2112 2076 34
2160 2072 2053 2056 34
1897 2053 2015 2047 33
2072 2059 2030 2054 33
2237 2087 2069 2084 32
1969 2086 2062 2083 32
2001 2086 2049 2066 31
2227 2052 2037 2048 30
2012 2057 2038 2058 30
1920 2055 2037 2057 29
2213 2080 2059 2075 29
2113 2085 2069 2083 28
1897 2067 2047 2067 28
2125 2043 2040 2053 27
2133 2019 2017 2028 26
1890 2049 2031 2045 26
2047 2053 2044 2054 25
2198 2051 2046 2053 25
1965 2072 2046 2058 24
1935 2035 2032 2031 24
2215 2080 2056 2058 23
2003 2033 2022 2029 23
1878 2024 2010 2021 22
2159 2040 2030 2043 22
2098 2064 2029 2041 21
1896 2071 2049 2059 21
2125 2067 2054 2067 20
2199 2083 2059 2068 20
1917 2063 2056 2049 19
2015 2038 2037 2037 19
2236 2080 2081 2100 18
1954 2050 2018 2037 18
1960 2061 2041 2052 18
2198 2043 2022 2048 17
2043 2061 2041 2070 17
1902 2076 2014 2043 17
2158 2057 2045 2058 16
2150 2086 2061 2074 16
1910 2079 2065 2087 16
2085 2054 2027 2047 15
2197 2068 2039 2057 15
1931 2076 2064 2081 15
1994 2058 2063 2071 15
2248 2077 2072 2075 14
1989 2066 2065 2057 14
1922 2064 2058 2057 14
2209 2060 2036 2034 14
2082 2065 2060 2064 14
1866 2053 2037 2036 14
2155 2063 2038 2051 13
2161 2069 2035 2045 13
1913 2078 2083 2093 13
2047 2042 2016 2029 13
2223 2071 2048 2051 13
1918 2051 2037 2033 13
1989 2064 2036 2039 13
2220 2056 2033 2039 13
2014 2080 2053 2061 13
1924 2069 2063 2082 12
2194 2060 2025 2045 12
2076 2051 2017 2039 12
1884 2050 2025 2032 12
2131 2058 2051 2053 12
2177 2057 2039 2064 12
1894 2053 2038 2045 12
2049 2067 2061 2064 12
2230 2076 2057 2068 12
1951 2046 2015 2031 11
1973 2062 2042 2065 11
2210 2053 2032 2047 11
2028 2056 2035 2050 11
1904 2052 2047 2053 11
2176 2065 2056 2061 10
2119 2073 2055 2062 10
1886 2063 2055 2062 10
2126 2069 2044 2050 10
2197 2067 2054 2054 10
1892 2036 1999 2016 10
2011 2016 2073 2072 9
2246 2077 2123 2108 9
1921 2007 1935 1937 9
1963 2070 2094 2135 9
2208 2062 2010 2042 9
2054 2066 2035 2064 9
1897 2061 2048 2066 9
2155 2047 2014 2018 9
2144 2064 2042 2056 9
1876 2055 2041 2063 8
2090 2057 2020 2030 8
2202 2065 2037 2051 8
1918 2065 2051 2054 8
2006 2057 2043 2047 8
2240 2074 2062 2066 8
1999 2069 2051 2061 8
1948 2082 2075 2083 7
2208 2046 2030 2036 7
2060 2041 2035 2037 7
1895 2068 2051 2069 7
2166 2075 2056 2078 7
2167 2073 2031 2060 7
1888 2054 2001 2036 7
2052 2049 1985 2035 7
2224 2073 1982 2055 7
1926 2051 1993 2042 7
1967 2045 2023 2048 7
2230 2057 2090 2048 7
2003 2058 2126 2058 7
1906 2049 2085 2041 7
2204 2063 2035 2048 7
2099 2048 1986 2059 7
1899 2073 2037 2064 7
2138 2064 2142 2068 7
2185 2071 2125 2064 7
1894 2059 2120 2068 7
2045 2061 2091 2073 7
2216 2066 2107 2056 7
1953 2067 2084 2049 7
1966 2061 2070 2070 7
2249 2064 1977 2052 7
2051 2066 1932 2037 7
1910 2060 1890 2046 7
2200 2058 1997 2069 7
2120 2061 2071 2073 7
1874 2061 2098 2081 8
2115 2063 2083 2061 8
2186 2061 2045 2066 8
1903 2057 2072 2075 9
2044 2062 2092 2057 9
2233 2073 2184 2076 9
1966 2064 2157 2064 10
1949 2054 2044 2043 10
2226 2063 1915 2024 11
2054 2064 1867 2031 11
1888 2056 1959 2046 12
2176 2068 2108 2065 13
2151 2085 2215 2110 13
1918 2097 2119 2088 14
2146 2115 1949 2067 15
2252 2108 1930 2075 15
1954 2095 2020 2071 16
2001 2057 2149 2076 17
2198 2034 2066 2015 17
1964 2027 2040 2029 18
1904 2025 1883 2008 19
2181 2025 1979 2023 20
2050 2026 2133 2077 20
1873 2036 2174 2042 21
2130 2050 2039 2047 22
2134 2045 1924 2016 23
1911 2070 1997 2080 23
2067 2065 2116 2092 24
2214 2060 2063 2046 25
1948 2046 1865 1978 26
1968 2037 1847 2001 26
2193 2045 2073 2082 27
1998 2052 2250 2112 28
1905 2043 2141 2063 29
2172 2058 1992 2031 30
2058 2057 1944 2048 30
1920 2076 2189 2108 31
2186 2094 2231 2100 32
2205 2085 2166 2081 33
1960 2074 1939 2042 34
2059 2053 1814 1994 35
2249 2095 1929 2069 36
2022 2109 2094 2101 37
1983 2086 2113 2092 38
2200 2059 2052 2041 38
1973 2013 2100 2036 39
1843 2005 2131 2007 40
2135 2031 2184 2061 41
2092 2036 1972 2015 42
1856 2035 1880 1987 43
2096 2045 1931 2030 44
2199 2048 1968 2038 45
1896 2055 1914 2024 46
2017 2055 2023 2077 47
2219 2059 2099 2081 48
1968 2063 2153 2057 49
1948 2078 2164 2095 50
2248 2099 2018 2079 51
2094 2112 2060 2142 52
1919 2106 2035 2067 53
2187 2110 2009 2043 54
2187 2069 2028 2041 54
2020 2047 2029 2028 55
2225 2034 2152 2027 56
2259 2038 2194 2096 57
1901 2040 1999 2027 58
1856 2031 1786 1999 59
2110 2053 1820 1997 60
1923 2056 2124 2100 61
1864 2059 2103 2112 62
2135 2080 2190 2144 63
2048 2077 2100 2047 64
1854 2058 2114 2067 64
2139 2046 2030 2020 65
2137 2052 1979 2008 66
1827 2048 2206 2092 67
2054 2058 2202 2119 68
2203 2056 2039 2081 69
1925 2048 1780 1999 70
1983 2043 1766 1983 71
2227 2053 2044 2069 71
2018 2057 2087 2037 72
1921 2045 2015 2024 73
2213 2061 1994 2001 74
2144 2084 2090 2048 75
1893 2092 2160 2056 76
2151 2086 2097 2072 77
2205 2071 1834 2089 77
1908 2076 1911 2062 78
2034 2052 2117 2084 79
2251 2088 2351 2073 80
1967 2073 2105 2029 81
1973 2066 1866 1970 81
2265 2067 2011 2061 82
2115 2079 2282 2135 83
1918 2076 2291 2133 84
2241 2076 1919 2028 85
2138 2048 1787 2035 85
1861 2059 2069 2057 86
2101 2060 2182 2124 87
2193 2060 1908 2036 88
1917 2049 1863 1989 89
2030 2053 1996 2019 89
2252 2067 2024 2004 90
1963 2068 2150 2101 91
1967 2081 1976 2084 92
2230 2074 2002 2048 92
2071 2079 2170 2127 93
1883 2065 2124 2078 94
2139 2056 2079 2094 94
2139 2074 2037 2013 95
1894 2060 2100 2036 96
2099 2056 2141 2085 97
2216 2061 2210 2120 97
1895 2039 2099 2113 98
1956 2030 2092 2088 98
2215 2032 1862 1992 99
1990 2027 1824 1940 100
1918 2035 2010 2044 100
2227 2054 2031 2034 101
2104 2063 1951 2035 102
1887 2044 1627 1976 102
2109 2045 2026 2031 103
2185 2111 2509 2196 103
1905 2066 2290 2136 104
2085 2062 1837 2023 105
2264 2075 2087 2071 105
1925 2079 2309 2078 106
1963 2092 2427 2162 106
2249 2061 1691 1932 107
1991 2021 1687 1977 107
1903 2076 2374 2220 108
2213 2089 2233 2122 108
2111 2050 1833 2010 109
1879 2032 1731 1868 110
2133 2050 2116 2068 110
2213 2065 1869 2048 111
1926 2065 1956 2062 111
2050 2047 2301 2102 112
2250 2090 2453 2125 112
1964 2061 2187 2106 113
1927 2029 1689 1924 113
2211 2057 2023 2041 114
1986 2070 2369 2131 114
1847 2058 2145 2081 115
2118 2021 1759 1961 115
2101 2049 1958 2004 116
1837 2073 2195 2112 116
2064 2063 2114 2078 117
2182 2063 1842 1996 117
1874 2039 1761 1972 118
1993 2057 1788 2025 118
2216 2036 1852 1980 119
1983 2057 2224 2070 119
1951 2078 2365 2113 119
2212 2080 2297 2131 120
2103 2088 2028 2090 120
1901 2028 1818 1951 120
2173 2055 1945 2058 121
2169 2067 2192 2112 121
1901 2062 2143 2076 121
2076 2042 2040 2019 122
2267 2091 2063 2049 122
1932 2069 2064 2069 122
1999 2051 2183 2102 123
2257 2046 2019 2045 123
1999 2019 1758 1957 123
1912 2050 1931 2026 123
2229 2061 2094 2063 123
2109 2074 2115 2075 123
1871 2036 1995 2030 124
2137 2023 1913 2022 124
2152 2025 1999 2003 124
1888 2042 2063 2029 124
2056 2067 2183 2096 124
2224 2062 1988 2067 124
1943 2068 2019 2034 124
1987 2078 2078 2101 124
2275 2098 2125 2122 124
2045 2090 2094 2098 124
1911 2078 2142 2107 124
2212 2073 2038 2066 124
2149 2092 2057 2085 124
1905 2087 2049 2071 124
2168 2086 2079 2048 124
2205 2060 2041 2049 124
1867 2041 1943 2018 124
2056 2041 2009 2020 124
2256 2060 2049 2061 123
1933 2058 2075 2044 123
2046 2046 2034 2028 123
2238 2057 2024 2036 123
2074 2058 1974 2031 123
1838 2031 1981 2029 123
2138 2053 2092 2060 123
2082 2048 2035 2019 123
1861 2063 2078 2053 122
2145 2070 2038 2073 122
2172 2053 1923 2013 122
1901 2071 2138 2129 121
2003 2069 2063 2035 121
2255 2102 2226 2132 121
1983 2091 2094 2073 120
1922 2061 1951 2008 120
2211 2053 2031 2063 120
2047 2044 2077 2043 119
1865 2046 2071 2050 119
2164 2058 2040 2049 118
2184 2064 2029 2055 118
1879 2056 2019 2049 118
2093 2058 2025 2051 117
2233 2063 2041 2065 117
1914 2047 1985 2028 116
1969 2047 2004 2051 116
2270 2060 2058 2056 115
2031 2065 1953 2052 115
1938 2061 1949 2053 114
2224 2063 2005 2067 113
2083 2067 2096 2056 113
1852 2084 2300 2143 112
2108 2079 2245 2113 112
2140 2068 2125 2067 111
1830 2048 2059 2043 110
2028 2053 1983 2022 110
2213 2069 2015 2072 109
1931 2054 2005 2047 108
1936 2046 1989 2025 108
2265 2080 2016 2048 107
2039 2076 2040 2068 106
1938 2049 2020 2056 106
2260 2051 2015 2044 105
2138 2052 2016 2039 104
1894 2051 2015 2048 104
2129 2045 1943 1999 103
2185 2050 1846 2020 102
1894 2067 2066 2104 101
2023 2064 2273 2130 101
2235 2054 2194 2069 100
1934 2033 2003 2029 99
1951 2037 1919 2017 98
2240 2050 2089 2079 97
2040 2057 2227 2067 96
1873 2050 2137 2054 96
2176 2049 2018 2034 95
2090 2045 1987 2031 94
1867 2051 1988 2023 93
2081 2040 1977 2030 93
2220 2062 1994 2043 92
1921 2050 2009 2039 91
2012 2055 2015 2039 91
2227 2071 2035 2063 90
1966 2074 2041 2061 89
1932 2078 2045 2069 89
2237 2080 2042 2051 88
2073 2074 2005 2048 87
1865 2055 2046 2061 87
2168 2058 2072 2096 86
2137 2060 2058 2084 85
1867 2064 2086 2094 84
2079 2063 2131 2062 83
2222 2072 2136 2069 83
1937 2059 2062 2056 82
1986 2053 2066 2053 81
2224 2040 2058 2039 80
1985 2047 2069 2041 79
1877 2039 1984 2028 78
2175 2049 2000 2028 78
2130 2051 2041 2049 77
1908 2049 2039 2039 76
2201 2057 1996 2045 75
2218 2052 1979 2044 75
1901 2056 1998 2043 74
2064 2063 1989 2058 73
2244 2071 1962 2062 72
1965 2081 2013 2063 71
1989 2094 2088 2074 70
2258 2100 2220 2136 70
2056 2105 2209 2136 69
1908 2096 2132 2104 68
2217 2093 2084 2109 67
2126 2096 2120 2085 66
1883 2071 2085 2057 65
2106 2044 2063 2035 65
2146 2025 1988 2006 64
1830 2013 1956 1995 63
1993 2016 1959 1997 62
2195 2031 1953 2017 62
1953 2037 1963 2023 61
1945 2047 2018 2044 60
2227 2062 2060 2066 60
2047 2052 2012 2041 59
1875 2039 1934 2025 58
2208 2049 1986 2059 57
2143 2047 2082 2064 57
1879 2050 2117 2065 56
2099 2053 2045 2041 55
2201 2064 2009 2061 54
1923 2069 2110 2079 54
2014 2049 2150 2063 53
2235 2047 2110 2048 52
1973 2048 2000 2028 52
1929 2050 1972 2057 51
2185 2059 2011 2059 50
2041 2070 2060 2063 50
1825 2061 2049 2060 49
2135 2072 2057 2074 48
2154 2072 2037 2069 47
1911 2062 2022 2057 47
2104 2062 2058 2059 46
2213 2057 2038 2053 45
1921 2040 2002 2045 45
2027 2075 1996 2078 44
2240 2063 1953 2059 43
2018 2066 2046 2069 42
1929 2057 2133 2079 42
2171 2047 2133 2065 41
2081 2066 2089 2053 40
1877 2059 1984 2051 40
2130 2053 2049 2056 39
2173 2058 2104 2059 38
1893 2065 2142 2068 38
2052 2067 2071 2057 37
2230 2063 2017 2061 36
1975 2071 2013 2063 36
1979 2062 2031 2058 35
2263 2082 2034 2072 34
2079 2094 2044 2079 34
1926 2051 2029 2060 33
2164 2044 2017 2043 33
2183 2089 2068 2088 32
1900 2058 2038 2063 31
2152 2084 2054 2069 31
2194 2049 2030 2044 30
1905 2057 2049 2055 30
2032 2074 2064 2064 29
2223 2045 2028 2042 29
1966 2048 2036 2041 28
1950 2065 2055 2060 28
2227 2068 2063 2070 27
2028 2031 2021 2027 27
1895 2064 2036 2045 26
2147 2063 2041 2058 25
2162 2093 2064 2078 25
1905 2068 2054 2066 25
2094 2059 2040 2051 24
2191 2060 2051 2064 24
1907 2046 2026 2033 23
1992 2042 2025 2043 23
2209 2056 2043 2058 22
1995 2068 2048 2066 22
1906 2037 2043 2053 21
2168 2023 1989 2020 21
2057 2043 2024 2054 20
1885 2064 2020 2031 20
2202 2125 2122 2130 20
2163 2068 2078 2089 19
1912 2082 2076 2093 19
2044 2046 2021 2035 18
2225 2092 2076 2087 18
1947 2065 2060 2069 18
1985 2066 2053 2066 17
2229 2065 2049 2056 17
1996 2047 2032 2040 17
1908 2049 2038 2047 17
2201 2058 2054 2054 16
2092 2058 2045 2043 16
1886 2056 2059 2068 16
2129 2061 2061 2065 15
2182 2078 2059 2065 15
1900 2057 2045 2051 15
2033 2049 2030 2042 15
2221 2068 2039 2049 15
1958 2064 2049 2062 14
1967 2061 2042 2056 14
2216 2059 2033 2047 14
2038 2067 2034 2053 14
1903 2057 2036 2047 14
2172 2058 2043 2053 14
2113 2063 2049 2063 13
1883 2054 2026 2028 13
2112 2059 2059 2060 13
2216 2082 2050 2068 13
1929 2093 2057 2082 13
2026 2067 2032 2059 13
2222 2051 2045 2056 12
1974 2062 2048 2053 12
1939 2052 2042 2036 12
2228 2065 2046 2068 12
2048 2060 2045 2057 12
1890 2050 2045 2064 12
2154 2046 2034 2056 11
2122 2048 2023 2035 11
1897 2067 2063 2062 11
2083 2052 2048 2041 11
2206 2075 2072 2072 11
1929 2060 2049 2049 10
1999 2060 2047 2051 10
2241 2080 2061 2062 10
1987 2049 2048 2052 10
1913 2053 2039 2039 10
2208 2067 2049 2060 10
2090 2071 2048 2056 10
1888 2051 2038 2051 9
2165 2072 2060 2069 9
2151 2064 2058 2056 9
1900 2073 2051 2060 9
2058 2050 2032 2042 9
2207 2060 2046 2053 9
1909 2045 2023 2041 9
1958 2045 2003 2031 9
2221 2060 1982 2036 9
2001 2054 1920 2032 9
1922 2059 1953 2052 9
2198 2063 2058 2077 9
2102 2068 2160 2080 9
1886 2059 2157 2057 9
2136 2063 2086 2052 9
2171 2057 2065 2056 9
1902 2061 2036 2072 9
2041 2058 2111 2080 9
2226 2069 2179 2100 9
1959 2060 2080 2056 9
1949 2033 1959 2003 9
2229 2064 1991 2058 9
2032 2062 1994 2069 9
1900 2060 2062 2074 9
2184 2059 2024 2053 9
2117 2055 2043 2080 10
1882 2057 2119 2049 10
2108 2055 2114 2087 10
2195 2058 2019 2047 10
1912 2053 1991 2042 11
2021 2055 2048 2037 11
2225 2071 2120 2064 11
1970 2060 2071 2048 12
1964 2065 1924 2014 12
2224 2061 1891 2025 13
2066 2066 1961 2028 13
1879 2054 2109 2079 14
2165 2068 2128 2068 14
2151 2072 2126 2090 15
1893 2080 1981 2048 15
2084 2065 1972 2073 16
2215 2082 2092 2083 17
1944 2082 2160 2081 17
2034 2092 2191 2090 18
2264 2076 2043 2051 19
2004 2068 2054 2067 19
1941 2074 2015 2058 20
2200 2058 2004 2046 21
2078 2057 1929 2057 21
1888 2055 1985 2039 22
2123 2046 2097 2087 23
2146 2051 1992 2036 24
1896 2046 2010 2031 24
2036 2045 2095 2016 25
2206 2073 2180 2100 26
1959 2078 2070 2058 27
1997 2076 1886 2031 28
2210 2053 1816 2014 29
2009 2047 2001 2052 29
1890 2023 1998 2013 30
2160 2026 2105 2031 31
2095 2037 2179 2078 32
1884 2050 2185 2068 33
2127 2076 2171 2094 34
2190 2079 2071 2045 35
1906 2059 2041 2075 36
2051 2078 2087 2081 37
2222 2073 2017 2054 38
1939 2044 1918 2000 39
1951 2024 1769 1964 40
2207 2046 1828 1990 41
2075 2101 1970 2096 42
1910 2064 2040 2096 43
2206 2074 2184 2119 44
2107 2050 2177 2057 45
1876 2037 2163 2054 46
2098 2054 2019 2012 47
2177 2049 2029 2013 48
1897 2047 2034 2021 49
1997 2055 2192 2102 49
2223 2078 2149 2131 50
1978 2095 2027 2077 51
1938 2095 1935 2022 52
2237 2096 1992 2074 53
2075 2101 2003 2064 54
1876 2064 1963 2041 55
2199 2055 1880 1999 56
2302 2027 1953 1999 57
2048 2025 2047 2032 58
2193 2041 2184 2094 59
2213 2058 2116 2075 60
1809 2044 2010 2076 61
1868 2047 2023 2048 62
2142 2054 2091 2105 63
1928 2058 2100 2080 64
1842 2058 2118 2097 65
2157 2069 2054 2036 65
2061 2070 2038 2040 66
1865 2054 2050 2047 67
2121 2065 2151 2103 68
2162 2071 2156 2085 69
1894 2063 2025 2057 70
2061 2052 1922 2053 71
2256 2060 2087 2088 72
1935 2061 2085 2081 73
1989 2051 1887 1985 74
2232 2058 1919 1989 75
2007 2072 2121 2126 75
1905 2067 1990 2064 76
2203 2080 1846 2013 77
2096 2064 2162 2112 78
1871 2086 2447 2185 79
2116 2082 2345 2141 80
2178 2072 1930 2020 81
1901 2058 1907 1943 82
2022 2049 2103 2025 83
2227 2065 1963 2035 83
1964 2067 1717 1957 84
1965 2063 1864 1990 85
2234 2072 2180 2077 86
2045 2072 2261 2107 87
1915 2065 1988 2053 87
2241 2097 1749 2049 88
2149 2062 1936 2023 89
1908 2074 2310 2105 90
2148 2068 2299 2143 90
2228 2072 2109 2065 91
1943 2069 2032 2088 92
2043 2055 2026 2052 93
2259 2079 2080 2065 93
2003 2091 1983 2072 94
1944 2063 1943 2040 95
2237 2078 1999 2063 95
2062 2053 1814 1988 96
1844 2024 2127 2057 97
2111 2010 2310 2081 97
2122 2040 2225 2050 98
1846 2037 1932 2027 98
2067 2027 1564 1953 99
2206 2056 2127 2125 99
1927 2060 2438 2128 100
2000 2070 2344 2130 101
2241 2044 1940 2003 101
1983 2036 1989 2048 102
1909 2033 2012 2052 102
2199 2049 2058 2032 103
2081 2032 1620 1873 103
1919 2045 1968 2048 104
2139 2088 2509 2270 104
2198 2091 2151 2145 105
1901 2067 1863 2053 105
2048 2045 1854 2007 106
2227 2075 2096 2080 106
1934 2069 2314 2085 107
1976 2049 1832 1970 107
2185 2017 1820 2031 108
1993 2048 2209 2067 108
1883 2037 2315 2084 109
2238 2087 2218 2138 109
2087 2042 1837 1997 110
1895 2078 1971 2039 110
2132 2057 2211 2062 110
2158 2051 2149 2029 111
1866 2058 1982 2030 111
2056 2055 1916 2059 112
2252 2088 2249 2161 112
1995 2064 1677 1978 113
1948 2036 1592 1973 113
2215 2091 2437 2179 114
2029 2096 2543 2211 114
1872 2066 2256 2094 115
2154 2031 1777 1978 115
2077 2028 1799 1936 115
1831 2052 2143 2013 116
2085 2060 2125 2087 116
2197 2061 1800 2009 117
1869 2031 1665 1961 117
2000 2077 2257 2154 117
2202 2064 2233 2076 118
1969 2091 2307 2152 118
1935 2055 1907 2013 119
2217 2029 1780 1975 119
2056 2039 2069 2012 119
1885 2041 2125 2032 120
2194 2079 1983 2021 120
2162 2072 1970 2062 120
1917 2072 2119 2070 120
2096 2041 1979 2009 121
2226 2055 2001 2035 121
1935 2041 1980 2044 121
1995 2047 2003 2027 121
2254 2053 2141 2085 121
2018 2067 1932 2017 122
1916 2037 1880 2010 122
2239 2066 2162 2081 122
2087 2066 2188 2116 122
1893 2066 2254 2133 122
2160 2060 1973 2039 122
2185 2080 1930 2026 122
1882 2079 2070 2045 122
2067 2076 2048 2071 122
2231 2067 1950 2037 122
1937 2060 2045 2061 122
1966 2043 2093 2063 122
2240 2050 2089 2064 122
2013 2055 2055 2047 122
1913 2069 2037 2060 122
2214 2064 2016 2062 122
2124 2069 2048 2068 122
1866 2060 2028 2051 122
2121 2063 1983 2053 121
2218 2082 2074 2087 121
1897 2067 2045 2054 121
2014 2045 1957 2016 121
2251 2066 2077 2074 121
1915 2050 2018 2036 121
1987 2065 2129 2093 120
2254 2063 2152 2105 120
2053 2064 2019 2057 120
1866 2060 2042 2057 120
2185 2055 1943 2013 119
2124 2060 1926 2022 119
1881 2056 2099 2062 119
2118 2076 2176 2104 118
2220 2070 2172 2080 118
1893 2049 2017 2040 117
2009 2044 1976 2031 117
2227 2046 2058 2024 117
1987 2057 2091 2051 116
1913 2063 2075 2060 116
2266 2069 2033 2064 115
2070 2061 1986 2043 115
1875 2059 2051 2060 114
2167 2051 2007 2036 114
2140 2055 2002 2032 113
1857 2074 2040 2060 113
2050 2082 2076 2102 112
2197 2091 2109 2123 112
1913 2081 2110 2106 111
1967 2062 1964 2053 110
2249 2081 2005 2057 110
1989 2070 1969 2027 109
1881 2044 2133 2089 108
2205 2063 2261 2114 108
2088 2048 2172 2081 107
1869 2059 2107 2065 106
2145 2057 2020 2039 106
2182 2036 1957 2023 105
1855 2040 1974 2036 104
2066 2032 1998 2027 104
2278 2044 2024 2037 103
1943 2036 2016 2013 102
1977 2040 1997 2027 102
2232 2041 1934 1991 101
2003 2043 1947 2040 100
1885 2053 2041 2072 100
2222 2061 1967 2065 99
2108 2077 2091 2086 98
1880 2061 2210 2113 97
2141 2072 2201 2074 97
2204 2083 2197 2130 96
1921 2092 2059 2084 95
2048 2066 2075 2077 94
2228 2054 2079 2063 94
1925 2028 1991 2001 93
1896 2033 1961 2007 92
2201 2054 1993 2039 92
2021 2063 2027 2041 91
1855 2053 2003 2033 90
2132 2055 1996 2039 90
2107 2052 1963 2022 89
1869 2053 2021 2056 89
2081 2048 2064 2064 88
2206 2052 2024 2029 87
1897 2043 2035 2031 86
2006 2060 2002 2049 86
2257 2077 2093 2112 85
2014 2079 2161 2111 84
1953 2068 2169 2055 84
2240 2068 2158 2071 83
2101 2070 2067 2075 82
1915 2069 2011 2058 81
2236 2090 2041 2085 81
2237 2096 2098 2091 80
1933 2079 2084 2063 79
2096 2060 2033 2044 79
2208 2057 2014 2045 78
1868 2041 2003 2035 77
1986 2048 2001 2029 77
2225 2045 2007 2040 76
2015 2062 2017 2071 75
1908 2060 1997 2070 75
2209 2060 1982 2021 74
2093 2057 2032 2045 73
1875 2053 2050 2035 73
2145 2054 2101 2088 72
2171 2063 2130 2079 71
1897 2056 2122 2079 70
2049 2051 2061 2059 70
2226 2052 2032 2041 69
1936 2043 1991 2013 68
1951 2058 2043 2042 68
2229 2070 2054 2070 67
2035 2059 2019 2052 66
1884 2055 2019 2046 66
2189 2054 2003 2042 65
2107 2054 1997 2046 65
1867 2053 2042 2053 64
2106 2053 1980 2050 63
2196 2062 1939 2036 63
1885 2056 1927 2052 62
2024 2052 2093 2049 61
2224 2036 2180 2069 61
1933 2033 2146 2051 60
1924 2029 2050 2022 59
2203 2044 2023 2038 59
2034 2060 2011 2045 58
1887 2046 2018 2050 57
2195 2075 2048 2078 57
2158 2078 2110 2074 56
1893 2076 2093 2060 56
2105 2068 2047 2048 55
2220 2074 1996 2060 54
1919 2070 2026 2066 54
2035 2079 2031 2073 53
2244 2069 2000 2052 52
2005 2079 2008 2061 52
1930 2054 2021 2048 51
2194 2038 2056 2061 50
2062 2048 2120 2085 50
1859 2037 2109 2065 49
2191 2061 2098 2062 48
2193 2061 2039 2060 48
1890 2076 2004 2071 47
2043 2054 1994 2055 46
2144 2050 2039 2043 46
1850 2021 2028 2023 45
1905 2038 2021 2031 44
2214 2071 2070 2063 44
2026 2067 2082 2074 43
1937 2069 2099 2067 42
2229 2057 2059 2059 42
2130 2048 2020 2038 41
1912 2046 2020 2040 41
2148 2039 2009 2042 40
2207 2069 2035 2073 39
1901 2059 2022 2064 39
2033 2048 1985 2030 38
2211 2045 1992 2047 38
1972 2074 2037 2071 37
1985 2070 2081 2077 36
2214 2041 2063 2053 36
2064 2067 2076 2058 35
1903 2055 2044 2058 35
2183 2067 2035 2054 34
2151 2067 1999 2066 33
1887 2042 2017 2065 33
2083 2034 2028 2046 32
2187 2050 2083 2057 32
1922 2061 2124 2070 31
2044 2081 2103 2080 30
2245 2088 2093 2086 30
2003 2085 2068 2077 29
1944 2049 2017 2041 29
2187 2038 2010 2032 28
2030 2038 2016 2041 28
1872 2034 2019 2039 27
2169 2065 2041 2065 27
2124 2056 2029 2048 26
1865 2038 2013 2033 25
2079 2046 2025 2036 25
2172 2039 2029 2048 25
1941 2068 2053 2067 24
2002 2061 2045 2058 24
2209 2045 2037 2050 23
1999 2062 2050 2060 23
1906 2047 2031 2041 22
2197 2056 2047 2047 22
2083 2056 2062 2052 21
1863 2025 2022 2038 21
2134 2049 2037 2054 21
2151 2051 2023 2049 20
1869 2042 2011 2015 20
2065 2073 2077 2106 19
2231 2079 2058 2110 19
1963 2083 2059 2089 19
2007 2093 2041 2068 18
2240 2083 2044 2057 18
2031 2072 2067 2083 18
1937 2074 2061 2073 17
2226 2104 2089 2111 17
2118 2083 2079 2085 17
1874 2034 2027 2030 17
2086 2022 1998 2006 16
2136 2047 2035 2038 16
1901 2063 2059 2060 16
2047 2058 2039 2042 16
2229 2078 2058 2059 15
1953 2076 2056 2053 15
1956 2059 2055 2048 15
2229 2057 2045 2007 15
2012 2040 2097 2107 15
1921 2073 1999 2035 15
2189 2074 2056 2096 14
2124 2070 2028 2055 14
1905 2066 2052 2061 14
2099 2057 2044 2057 14
2209 2065 2055 2072 14
1926 2066 2054 2059 13
2016 2053 2047 2051 13
2219 2067 2046 2054 13
1991 2069 2051 2056 13
1942 2061 2043 2040 13
2192 2047 2024 2031 12
2046 2050 2030 2031 12
1886 2029 2041 2033 12
2171 2064 2029 2052 12
2135 2069 2035 2071 12
1886 2068 2040 2054 11
2068 2037 2002 2039 11
2208 2080 2019 2043 11
1933 2068 2032 2062 11
1997 2059 2039 2046 11
2242 2078 2078 2091 10
1996 2062 2049 2060 10
1931 2062 2049 2065 10
2219 2075 2056 2060 10
2087 2068 2060 2059 9
1898 2059 2058 2056 9
2146 2073 2032 2044 9
2136 2044 2023 2036 9
1880 2044 2042 2041 8
2048 2049 2042 2034 8
2203 2063 2051 2048 8
1928 2049 2029 2052 8
1985 2071 2037 2060 7
2215 2067 2048 2067 7
2016 2057 2048 2061 7
1940 2096 2068 2054 7
2188 2053 2043 2039 7
2100 2065 2052 2065 6
1884 2047 2034 2049 6
2130 2057 2039 2065 6
2156 2052 2026 2054 6
1923 2079 2054 2073 6
2066 2074 2059 2066 6
2233 2073 2056 2055 5
1972 2073 2050 2062 5
1965 2062 2025 2040 5
2204 2048 1994 2033 5
2025 2053 1986 2048 5
1909 2066 2029 2059 5
2180 2063 2055 2065 5
2135 2066 2049 2067 5
1893 2064 2053 2063 5
2090 2039 2095 2055 5
2216 2078 2142 2074 5
1913 2061 2093 2047 5
2024 2057 2013 2037 5
2231 2067 2015 2063 5
1983 2065 2041 2062 5
1944 2062 2095 2068 5
2217 2064 2074 2062 5
2064 2071 2015 2044 5
1888 2052 1997 2072 5
2166 2056 2069 2063 5
2147 2053 2116 2062 5
1896 2056 1988 2024 5
2087 2055 1865 2030 6
2201 2057 1968 2036 6
1917 2053 2109 2100 6
1997 2064 2180 2096 6
2212 2061 2091 2108 7
2016 2066 2096 2083 7
1935 2059 2161 2077 7
2207 2070 2201 2072 8
2095 2066 2145 2069 8
1893 2056 2046 2026 9
2148 2064 1974 2043 9
2128 2054 1876 2016 10
1894 2053 1824 2009 10
2101 2060 1949 2048 11
2232 2077 2080 2080 12
1986 2073 2042 2060 12
1981 2063 1977 2031 13
2240 2079 2003 2064 14
2036 2091 2201 2108 14
1933 2082 2168 2101 15
2244 2120 2069 2096 16
2105 2068 1947 2052 16
1897 2067 2101 2088 17
2126 2052 2162 2061 18
2159 2048 2080 2032 18
1894 2057 1989 2046 19
2028 2041 1968 2037 20
2191 2046 2031 2070 20
1942 2053 2077 2072 21
1937 2040 1979 2034 22
2193 2041 2006 2049 22
2031 2042 2052 2044 23
1872 2025 2025 2014 24
2137 2032 2023 2027 25
2130 2055 2032 2021 25
1893 2059 2163 2077 26
2121 2078 2193 2106 27
2219 2072 2067 2067 28
1931 2059 1910 2023 29
2028 2073 1882 2033 29
2273 2108 1978 2090 30
2014 2086 2026 2054 31
1947 2071 2054 2096 32
2199 2053 2072 2048 33
2039 2033 1997 2022 33
1836 2013 1915 1968 34
2103 2011 2077 2007 35
2099 2006 2176 2059 35
1871 2033 2092 2013 36
2072 2046 2067 2051 37
2212 2078 2040 2087 38
1948 2075 2142 2116 38
2007 2059 2045 2076 39
2229 2063 1820 2029 40
1950 2030 1700 1960 41
1958 2044 1950 2023 41
2236 2077 2312 2095 42
2135 2099 2292 2126 43
1977 2119 2057 2097 44
2207 2082 2015 2082 45
2258 2066 2244 2090 45
1978 2064 2190 2061 46
2080 2041 2016 2028 47
2168 2069 1912 2054 48
1880 2076 1968 2056 49
1911 2057 1839 2003 49
2187 2069 1801 2023 50
1974 2065 2059 2053 51
1835 2060 2415 2159 52
2136 2071 2181 2066 53
2082 2064 1785 1959 54
1868 2066 1872 2002 54
2089 2073 2093 2072 55
2127 2079 2160 2084 56
1864 2057 2005 2070 57
2048 2043 1973 2054 58
2231 2048 2167 2066 58
1993 2049 2232 2106 59
1984 2041 2120 2067 60
2234 2052 1973 2030 61
2048 2046 2089 2096 62
1893 2045 2102 2093 63
2165 2053 1973 2040 64
2158 2076 1813 1990 64
1881 2044 2017 2041 65
2102 2055 2224 2110 66
2213 2066 2123 2093 67
1891 2061 1901 2014 68
2029 2067 1918 2027 68
2240 2084 2257 2129 69
1998 2073 2187 2088 70
1929 2057 1935 2015 71
2209 2062 1892 2037 72
2062 2064 1921 2039 72
1874 2056 2205 2105 73
2161 2058 2118 2064 74
2157 2068 2056 2081 75
1882 2057 2104 2089 75
2123 2063 2073 2028 76
2247 2069 2110 2029 77
1937 2061 2139 2062 78
2009 2067 1960 2075 78
2237 2077 1819 2039 79
2007 2081 2063 2050 80
1932 2069 2116 2035 81
2227 2076 2163 2079 81
2099 2091 2102 2107 82
1860 2069 1853 2021 83
2143 2063 2047 2097 84
2208 2073 2225 2076 84
1903 2064 2213 2112 85
2090 2068 1796 1993 86
2237 2052 1684 1971 86
1927 2064 1977 2011 87
1971 2074 2389 2149 88
2255 2084 2246 2130 89
2024 2061 1781 1997 89
1885 2043 1977 2046 90
2187 2060 2248 2081 91
2105 2055 2108 2059 91
1839 2032 1796 1968 92
2115 2039 1873 2005 93
2173 2059 2073 2050 93
1836 2047 2231 2105 94
2016 2054 2238 2127 94
2237 2065 2222 2143 95
1981 2087 2007 2094 96
1951 2067 1851 2006 97
2265 2068 2054 2017 97
2073 2076 2170 2111 98
1905 2057 2062 2027 98
2205 2042 1638 1961 99
2116 2024 1763 2000 100
1851 2054 2231 2125 100
2079 2066 2298 2133 101
2217 2063 2058 2067 102
1873 2014 1815 2000 102
1961 2020 2164 2022 103
2211 2053 2368 2146 103
1981 2060 2208 2046 104
1937 2039 1620 1951 105
2209 2046 1810 2031 105
2048 2061 2316 2103 106
1873 2074 2359 2164 106
2177 2074 2061 2047 107
2161 2049 1678 1958 108
1868 2053 1950 2032 108
2075 2063 2129 2085 109
2239 2076 1983 2044 109
1919 2036 1805 2020 110
1987 2061 2086 2030 110
2256 2090 2218 2153 111
1989 2068 1993 1995 111
1916 2031 2045 1992 112
2233 2052 2111 2088 112
2144 2120 2443 2198 113
1935 2111 2197 2161 113
2150 2045 1709 1945 114
2166 2022 1829 1978 114
1855 2035 2102 2043 115
2047 2064 2197 2133 115
2250 2073 2111 2065 116
1943 2062 1998 2045 116
1961 2050 1977 2045 117
2241 2060 1977 2041 117
2031 2054 1971 2035 118
1881 2039 1983 2034 118
2204 2069 2018 2069 118
2090 2049 1976 2016 119
1894 2080 1909 2049 119
2125 2060 1875 2069 119
2199 2058 2101 2119 120
1882 2054 2302 2111 120
2021 2056 2222 2067 120
2251 2069 2129 2034 120
1948 2082 2010 2032 120
1966 2066 2095 2083 121
2225 2052 2058 2041 121
2052 2073 2067 2111 121
1869 2049 1994 2043 121
2173 2055 2012 2052 121
2120 2039 1969 2024 121
1827 2020 1940 2017 121
2083 2048 1989 2041 121
2219 2069 2117 2076 121
1901 2067 2048 2045 121
2021 2059 1951 2015 121
2242 2065 1999 2081 121
1991 2074 2130 2135 121
1923 2068 2180 2113 121
2206 2064 2128 2085 121
2101 2067 2033 2039 120
1904 2072 2072 2065 120
2189 2066 2029 2074 120
2137 2052 1890 2034 120
1844 2046 2015 2029 120
2103 2064 2177 2084 119
2245 2079 2175 2075 119
1956 2065 2030 2048 119
1996 2052 1956 2003 119
2228 2072 2064 2062 118
2036 2068 2077 2074 118
1929 2059 2020 2056 118
2209 2055 1979 2045 117
2091 2071 2072 2068 117
1843 2057 2041 2073 117
2124 2048 2005 2052 116
2165 2047 1999 2039 116
1853 2051 2050 2035 115
1995 2061 2120 2080 115
2228 2067 2039 2063 114
1926 2060 1947 2079 114
1965 2070 2061 2079 113
2233 2066 2070 2050 113
2069 2066 2175 2059 112
1894 2060 2132 2077 112
2229 2075 2063 2078 111
2192 2074 2027 2069 110
1893 2062 1984 2025 110
2166 2057 2042 2072 109
2217 2053 2030 2058 109
1872 2030 1941 1998 108
1995 2029 2013 2027 107
2214 2045 2057 2054 107
1918 2050 2070 2063 106
1901 2049 2014 2056 105
2232 2043 1871 1985 105
2050 2054 1938 2005 104
1878 2049 2135 2101 103
2212 2072 2292 2132 102
2177 2080 2251 2119 102
1925 2089 2143 2095 101
2128 2073 1993 2044 100
2231 2061 1987 2062 99
1845 2043 2027 2060 99
1992 2037 1981 2011 98
2238 2053 2020 2045 97
1973 2065 2017 2037 97
1916 2063 2016 2041 96
2216 2063 2031 2053 95
2065 2058 2018 2038 95
1865 2042 1959 2001 94
2162 2056 1956 2030 93
2142 2057 2073 2088 92
1861 2072 2177 2100 92
2082 2067 2129 2072 91
2236 2064 1933 2060 90
1912 2057 1974 2052 89
1954 2048 2075 2039 89
2218 2056 2300 2106 88
1989 2051 2246 2091 87
1889 2037 2094 2064 86
2186 2043 2001 2026 86
2092 2044 1981 2015 85
1888 2057 1977 2034 84
2152 2049 1968 2030 83
2198 2057 1990 2031 83
1894 2057 2008 2045 82
2024 2057 2015 2049 81
2240 2073 2038 2062 81
1959 2067 2024 2052 80
1968 2061 2004 2048 80
2230 2068 1996 2039 79
2033 2071 2019 2056 78
1899 2068 2091 2069 78
2195 2073 2084 2105 77
2141 2079 2092 2082 76
1893 2068 2033 2068 75
2127 2073 2067 2060 75
2220 2085 2145 2094 74
1900 2062 2160 2078 73
2047 2061 2106 2057 73
2251 2066 2060 2053 72
1992 2064 2016 2043 71
1978 2080 2029 2055 70
2253 2076 2020 2063 70
2074 2080 2024 2049 69
1880 2051 2013 2053 68
2176 2060 2015 2053 67
2121 2056 1995 2043 67
1861 2049 2005 2037 66
2059 2037 1996 2022 65
2172 2023 1981 2026 64
1884 2036 1984 2039 64
1977 2023 1960 2019 63
2247 2066 1987 2043 62
1998 2058 2029 2029 61
1933 2043 2059 2021 60
2233 2066 2200 2070 59
2074 2071 2239 2112 58
1878 2061 2153 2096 57
2141 2050 2065 2073 57
2149 2044 1980 2024 56
1878 2044 1990 2037 55
2067 2060 2007 2052 54
2216 2059 1993 2055 53
1919 2049 1982 2038 52
1989 2049 2016 2050 51
2239 2051 2006 2045 51
2021 2059 1986 2048 50
1909 2063 1983 2053 49
2192 2062 1984 2067 48
2105 2061 2046 2068 47
1892 2062 2070 2065 46
2108 2047 2041 2043 46
2179 2067 2065 2070 45
1873 2050 2107 2048 44
2060 2076 2177 2065 43
2238 2067 2117 2069 42
1980 2069 2060 2079 41
1991 2069 2020 2070 41
2252 2057 2047 2069 40
2046 2044 2048 2047 39
1937 2061 2042 2049 38
2216 2063 2029 2062 37
2182 2073 2033 2072 37
1946 2071 2031 2069 36
2124 2077 2041 2063 35
2153 2064 2038 2058 34
1835 2060 2043 2060 34
1903 2048 2037 2055 33
2131 2055 2033 2055 32
1926 2063 2040 2055 32
1867 2034 2015 2032 31
2229 2093 2065 2081 30
2075 2080 2062 2074 30
1920 2082 2061 2077 29
2161 2039 2019 2044 28
2140 2043 2032 2042 28
1917 2078 2065 2066 27
2101 2064 2031 2024 27
2241 2069 2065 2075 26
1923 2033 1999 1994 25
1988 2045 2057 2065 25
2220 2047 2019 2030 24
2003 2053 2035 2063 23
1962 2085 2068 2100 23
2220 2087 2076 2121 22
2104 2071 2043 2070 22
1896 2051 2031 2068 21
2152 2072 2061 2074 20
2158 2063 2049 2060 20
1929 2073 2067 2082 19
2055 2046 2030 2035 19
2172 2029 2021 2029 18
1913 2019 2018 2022 18
1955 2039 2032 2040 17
2198 2053 2045 2048 17
2009 2047 2041 2043 16
1903 2045 2035 2031 16
2208 2070 2049 2043 15
2151 2102 2116 2112 15
1903 2069 2035 2028 15
2113 2061 2078 2091 14
2176 2066 2031 2028 14
1849 2005 2004 2028 14
2009 2031 1979 2016 13
2204 2051 2020 2064 13
1953 2065 2019 2042 13
1969 2071 2054 2055 12
2226 2074 2063 2078 12
2053 2076 2059 2075 12
1928 2084 2066 2071 11
2180 2075 2058 2069 11
2167 2093 2075 2084 11
1895 2065 2059 2067 10
2105 2071 2055 2061 10
2212 2079 2060 2061 10
1953 2090 2120 2132 9
1999 2062 2029 2047 9
2235 2083 2067 2081 9
2000 2074 2030 2035 9
1943 2066 2047 2063 8
2183 2053 2045 2049 8
2064 2032 2014 2020 8
1889 2038 2024 2026 8
2140 2057 2059 2048 7
2157 2069 2056 2067 7
1886 2038 2008 2009 7
2056 2044 2050 2057 7
2209 2073 2075 2064 7
1923 2052 2031 2041 6
2002 2062 2065 2083 6
2228 2072 2059 2089 6
1997 2054 2011 2039 6
1927 2061 2032 2057 6
2208 2066 2045 2061 6
2084 2057 2045 2057 5
1895 2060 2054 2057 5
2139 2044 2045 2057 5
2192 2069 2052 2055 5
1898 2063 2050 2052 5
2080 2071 2059 2063 5
2226 2059 2047 2052 5
1959 2068 2039 2080 4
1988 2070 2031 2059 4
2238 2075 2023 2072 4
2029 2082 2045 2067 4
1919 2069 2067 2057 4
2180 2047 2104 2076 4
2098 2057 2073 2045 4
1878 2060 2032 2044 4
2109 2053 1973 2046 4
2159 2041 1966 2031 4
1876 2039 2028 2041 4
2022 2049 2069 2054 4
2213 2058 2061 2046 4
1958 2056 1990 2035 4
1933 2037 1966 2043 4
2223 2063 2030 2071 4
2051 2067 2130 2075 4
1887 2049 2063 2057 4
2182 2053 1989 2041 4
2133 2069 1967 2058 4
1891 2062 2089 2078 4
2092 2068 2248 2092 4
2193 2061 2269 2072 4
1948 2069 2151 2036 4
2022 2062 2024 2029 4
2240 2062 1963 2042 5
1983 2052 1911 2040 5
1923 2049 1978 2051 5
2208 2055 1985 2031 5
2068 2058 2053 2079 6
1894 2057 2021 2054 6
2135 2055 2055 2093 6
2149 2061 2076 2063 7
1904 2063 2160 2076 7
2076 2060 2073 2050 7
2223 2067 1971 2070 8
1942 2056 1927 2049 8
1986 2059 2012 2068 9
2224 2063 2039 2046 9
2016 2072 1936 2024 10
1932 2066 1949 2048 10
2192 2057 2119 2040 11
2091 2096 2371 2115 11
1906 2074 2278 2074 12
2173 2095 2042 2077 13
2200 2099 1894 2062 13
1915 2079 1932 2054 14
2088 2080 2033 2062 15
2222 2068 2108 2097 15
1947 2057 2065 2058 16
1966 2051 1976 2033 17
2180 2043 1931 2051 17
2016 2063 1971 2042 18
1910 2052 2189 2110 19
2189 2060 2184 2049 19
2137 2087 2140 2073 20
1895 2064 1958 2035 21
2101 2051 1968 2041 22
2180 2049 2165 2094 22
1875 2029 2076 2034 23
1989 2024 1935 2001 24
2200 2033 1747 1967 25
1949 2049 1945 2049 26
1933 2052 2154 2085 27
2201 2059 2270 2082 28
2041 2049 2150 2037 29
1906 2056 1948 2001 30
2193 2081 1799 2031 31
2161 2074 1882 2029 32
1906 2075 2088 2084 33
2090 2053 2165 2063 34
2186 2063 2195 2095 35
1927 2048 1970 2029 36
2040 2070 1953 2078 36
2254 2079 1978 2071 37
1982 2064 2133 2067 38
1915 2040 2165 2057 39
2186 2049 2101 2055 40
2071 2061 1963 2025 41
1893 2048 1955 2026 42
2143 2054 2109 2081 43
2135 2054 2056 2043 44
1848 2039 2017 2053 45
2074 2056 1949 2032 46
2251 2087 2119 2098 47
2003 2111 2146 2114 48
2115 2079 1956 2014 49
2323 2073 1856 2006 50
2032 2081 2037 2055 51
1920 2082 2118 2093 52
2135 2066 2111 2085 53
2028 2037 1932 1998 54
1827 2030 2013 2082 54
2062 2040 2122 2088 55
2116 2043 2139 2109 56
1849 2026 1955 1973 57
2015 2030 1994 2016 58
2189 2054 2121 2073 59
1901 2058 2368 2163 60
1952 2067 2297 2115 61
2231 2070 1997 2046 62
1997 2064 1831 2016 62
1905 2064 1952 2045 63
2222 2081 2064 2080 64
2143 2079 2016 2085 65
1898 2060 1875 2023 66
2108 2033 1889 2004 67
2160 2046 1923 2041 68
1885 2051 2100 2035 69
2024 2058 2196 2111 69
2214 2070 2247 2112 70
1959 2075 2128 2107 71
1952 2064 2001 2041 72
2226 2065 2064 2062 73
2053 2063 2193 2085 73
1885 2040 1954 1992 74
2174 2055 1930 2037 75
2129 2055 2159 2078 76
1872 2068 2273 2147 77
2098 2074 2022 2025 77
2214 2076 1878 1986 78
1954 2079 2046 2067 79
2016 2080 2102 2103 80
2251 2084 1896 2009 81
1999 2068 1812 1997 81
1921 2066 2114 2099 82
2227 2075 2052 2116 83
2109 2079 2025 2037 84
1913 2060 2128 2051 84
2178 2076 2336 2091 85
2170 2083 2223 2155 86
1883 2067 1815 2055 86
2054 2047 1776 1994 87
2250 2070 2238 2074 88
1950 2074 2204 2037 89
2007 2055 2057 2056 89
2248 2060 1973 2073 90
2021 2051 2114 2086 91
1899 2052 2082 2034 91
2205 2049 1924 2003 92
2101 2041 1760 1973 93
1852 2068 2103 2169 93
2133 2061 2232 2097 94
2171 2070 2181 2098 95
1884 2053 1994 2006 95
2044 2046 2052 2086 96
2215 2059 2152 2067 97
1921 2052 2174 2076 97
1931 2035 1920 1992 98
2214 2056 1848 2024 99
2041 2055 2034 2063 99
1916 2069 2044 2040 100
2198 2049 1752 1964 101
2126 2063 1872 2053 101
1904 2069 2409 2188 102
2137 2075 2346 2081 102
2229 2066 1942 2056 103
1892 2038 1875 1967 104
2005 2050 2234 2122 104
2223 2053 2026 2018 105
1943 2034 1917 1978 105
1925 2052 1952 2079 106
2238 2061 2300 2131 106
2065 2078 2271 2136 107
1912 2068 1983 2042 107
2189 2060 1875 2000 108
2122 2047 2039 2020 108
1881 2041 2030 2039 109
2081 2030 1912 2006 109
2185 2044 1988 2091 110
1948 2051 2055 2091 110
2015 2035 1923 1988 111
2247 2058 1900 2032 111
2000 2056 1935 2034 112
1902 2040 2163 2130 112
2227 2113 2461 2184 112
2077 2075 2107 2053 113
1853 2044 1890 2023 113
2130 2051 2068 2065 114
2146 2072 2210 2080 114
1871 2085 2273 2085 114
2062 2068 1899 2008 115
2155 2024 1741 1979 115
1868 2056 2105 2088 115
2002 2073 2181 2119 116
2242 2063 1793 1972 116
1981 2030 1675 1947 117
1899 2058 2214 2159 117
2207 2091 2347 2168 117
2105 2092 2186 2144 118
1869 2013 1644 1919 118
2052 1980 1731 1852 118
2141 2045 2387 2092 118
1889 2069 2429 2104 119
2096 2083 2087 2082 119
2261 2072 1706 1985 119
1991 2078 2002 2088 120
1953 2067 2204 2066 120
2228 2061 2281 2111 120
2037 2051 1956 2045 120
1904 2033 1736 1960 121
2210 2057 1978 2071 121
2159 2084 2143 2079 121
1901 2063 2113 2076 121
2120 2056 2125 2071 122
2208 2055 2009 2031 122
1920 2037 1891 2016 122
2018 2042 2020 2049 122
2247 2058 2045 2055 122
1977 2061 1970 2041 122
1953 2061 1995 2057 122
2262 2080 2070 2087 122
2048 2044 2120 2046 123
1921 2058 2136 2062 123
2177 2055 1931 2030 123
2154 2071 1982 2060 123
1894 2078 2131 2090 123
2082 2073 2157 2106 123
2207 2067 2114 2097 123
1910 2062 2013 2053 122
2007 2052 2006 2047 122
2249 2073 2043 2071 122
1997 2073 1988 2057 122
1920 2057 1962 2023 122
2237 2063 2071 2056 122
2076 2069 2121 2070 122
1865 2047 2053 2041 121
2152 2043 2013 2027 121
2169 2064 2017 2079 121
1888 2063 2113 2088 121
2113 2074 2084 2079 120
2241 2067 1981 2029 120
1868 2038 1995 2040 120
1976 2029 1921 2001 119
2224 2048 2060 2051 119
2007 2053 2125 2050 118
1903 2054 2116 2067 118
2203 2057 2090 2070 117
2118 2056 1911 1989 117
1922 2082 2087 2109 116
2161 2084 2117 2115 116
2230 2108 2137 2124 115
1897 2069 2066 2079 115
2034 2049 1983 2012 114
2250 2075 2008 2066 114
1887 2051 1988 2032 113
1907 2041 2021 2021 112
2195 2049 2013 2021 112
1994 2092 2109 2093 111
1847 2078 2105 2095 111
2174 2072 1935 2019 110
2105 2059 2007 2044 109
1812 2054 2139 2115 109
2117 2062 2152 2124 108
2210 2059 2159 2100 107
1919 2052 2059 2034 107
2038 2044 2042 2031 106
2261 2041 2005 2040 105
1970 2040 1956 2021 105
1937 2049 2008 2025 104
2256 2047 2042 2040 103
2080 2054 2034 2039 103
1889 2043 1974 2010 102
2149 2038 1958 2022 101
2151 2042 2021 2035 101
1863 2063 2093 2112 100
2116 2085 2125 2108 99
2244 2083 2084 2087 98
1905 2055 1969 2029 98
1972 2044 1998 2031 97
2230 2050 2107 2070 96
2004 2083 2194 2125 96
1925 2082 2168 2112 95
2225 2075 2088 2087 94
2083 2064 2009 2038 93
1869 2059 1981 2023 93
2148 2059 1994 2029 92
2145 2052 2017 2044 91
1843 2033 2014 2024 91
2016 2026 1993 2006 90
2191 2045 1990 2026 89
1910 2060 2005 2039 88
1978 2080 2083 2094 88
2235 2076 2093 2089 87
1999 2049 1982 2045 86
1909 2045 1933 2006 86
2224 2052 1999 2042 85
2135 2067 2106 2074 84
1883 2058 2184 2116 83
2164 2065 2194 2100 83
2200 2070 2126 2071 82
1927 2073 2055 2055 81
2090 2069 2011 2044 81
2244 2075 2027 2055 80
1975 2072 2049 2056 79
1999 2073 2039 2054 79
2258 2079 2024 2060 78
2084 2081 2032 2068 78
