188 -4 -1 2 0
-7 49 16 19 0
-159 2 -10 -2 0
157 12 -8 2 0
63 32 -2 0 0
-187 3 0 40 0
84 9 -2 -12 0
138 18 -45 -31 0
-155 25 3 5 0
6 27 8 0 0
168 3 -20 2 0
-94 21 8 4 0
-74 36 21 51 0
175 25 20 32 0
2 29 26 41 0
-131 13 6 10 0
138 13 4 14 0
38 -17 -20 -15 0
-153 12 0 4 0
87 21 -6 1 0
122 7 -7 24 0
-118 18 8 11 0
-17 21 22 22 0
157 15 11 -3 0
-58 20 19 32 0
-86 23 5 61 0
174 33 5 30 0
-1 4 -17 -4 0
-144 1 -24 -7 0
91 -8 -4 -2 0
82 13 -3 26 0
-152 -1 -12 -3 0
22 -13 -21 -25 0
145 24 11 24 0
-112 21 -10 0 0
-38 -8 -14 -17 0
169 5 -56 -51 0
-55 9 46 47 0
-90 30 4 15 0
147 9 -34 -27 0
10 6 -6 -4 0
-117 21 1 14 0
139 54 19 51 0
103 18 -1 -6 0
-128 10 16 19 0
21 2 -16 7 0
148 11 -5 21 0
-115 1 -23 -3 0
-57 -2 -26 -39 0
163 24 35 38 0
-39 12 -15 22 0
-109 13 11 10 0
132 7 -27 -26 0
41 21 0 29 0
-155 2 -28 -43 0
85 25 22 64 0
132 16 -45 -27 0
-123 22 38 35 0
-20 -15 -29 -34 0
157 14 13 2 0
-100 7 17 30 0
-39 51 6 24 0
163 12 9 9 0
-33 -12 -27 -9 0
-114 20 -8 -3 0
137 30 18 36 0
74 24 -2 -1 0
-164 -14 -18 1 0
75 29 4 12 0
113 4 -7 -8 0
-133 -2 -83 -85 0
-16 3 53 97 0
157 16 -7 -1 0
-79 24 23 47 0
-94 5 -31 -18 0
138 -5 -17 2 0
-24 -1 15 35 0
-144 3 -23 -13 0
111 10 -6 -2 0
102 28 9 21 0
-147 2 16 12 0
30 4 -12 -3 0
161 33 20 20 0
-105 26 15 28 0
-27 32 3 -1 0
159 14 -29 -26 0
-56 10 25 45 0
-104 8 20 40 0
140 3 -16 -6 0
32 18 -3 8 0
-164 -17 -39 -17 0
92 5 -17 28 0
95 19 6 7 0
-140 0 1 -3 0
6 1 -4 5 0
139 25 -13 -12 0
-112 14 12 31 0
-18 41 9 12 0
176 21 -3 8 0
-7 39 17 19 0
-102 15 -9 -23 0
141 6 30 55 0
32 -7 -24 -21 0
-133 15 -77 -17 0
74 10 -29 -12 0
97 13 -9 -3 0
-155 -17 -4 -12 0
34 43 41 58 0
158 25 8 38 0
-85 1 -13 0 0
-103 -22 -26 -28 0
137 12 -6 0 0
-2 23 13 30 0
-112 11 -9 5 0
113 4 -5 8 0
59 12 -3 13 0
-154 -2 -18 -9 0
41 5 -11 -6 0
151 33 25 36 0
-128 1 -19 -24 0
-17 14 2 16 0
153 1 -4 -1 0
-57 14 -21 -12 0
-99 1 13 13 0
153 23 -59 -1 0
26 32 19 37 0
-128 15 -13 0 0
105 15 0 -1 0
70 11 16 18 0
-93 46 22 28 0
28 3 -17 -4 0
106 -12 -29 -21 0
-88 25 50 68 0
-46 5 -18 -5 0
150 17 -11 8 0
-44 21 -3 17 0
-105 -9 -21 -30 0
138 17 45 42 0
36 24 3 15 0
-165 -23 -34 -12 0
84 3 -26 -55 0
89 21 104 115 0
-137 8 -17 -8 0
16 16 -8 35 0
99 -30 -52 -49 0
-68 39 21 19 0
-60 14 4 12 0
148 0 11 31 0
-35 -3 -21 -20 0
-125 -7 -25 -47 0
146 33 52 84 0
57 32 -12 16 0
-139 12 -20 14 0
66 2 -15 -3 0
122 22 7 9 0
-115 13 9 8 0
-16 -9 -16 -19 0
166 23 -2 13 0
-77 13 7 33 0
-79 11 -1 20 0
124 -15 -25 -42 0
7 26 -23 -9 0
-157 3 14 48 0
139 27 21 44 0
53 -15 -55 -54 0
-139 7 -15 16 0
52 16 -15 18 0
142 25 6 31 0
-172 -28 -49 -39 0
5 33 16 12 0
169 27 8 15 0
-52 17 0 5 0
-72 22 10 12 0
138 11 0 7 0
28 31 12 22 0
-132 1 -10 -1 0
107 14 -2 7 0
79 12 -3 13 0
-116 29 5 10 0
41 12 -27 -18 0
125 -4 14 19 0
-84 24 24 -3 0
-25 25 10 47 0
162 24 9 24 0
-40 -1 -17 4 0
-130 -25 -19 -12 0
143 15 4 16 0
54 44 25 45 0
-130 11 -6 11 0
69 -31 -39 -39 0
116 23 0 24 0
-139 21 -12 5 0
34 16 8 19 0
150 -2 -22 -14 0
-118 4 -11 -15 0
-59 17 19 34 0
176 10 -6 -1 0
-27 8 -11 0 0
-113 20 -17 26 0
138 18 15 48 0
48 11 -18 2 0
-131 25 -5 6 0
85 28 13 17 0
108 11 -32 -5 0
-143 25 3 13 0
7 12 -17 5 0
159 18 0 9 0
-95 -2 -11 -5 0
-81 5 -7 -6 0
154 12 -8 5 0
-8 20 5 15 1
-123 15 1 12 1
109 1 -14 5 1
66 19 -3 9 1
-162 -5 -11 0 1
89 34 17 30 1
123 0 -2 6 1
-122 12 1 8 1
-29 0 -13 -2 1
153 12 6 22 1
-75 8 -13 -5 1
-104 2 -11 4 1
161 15 -7 6 1
-13 -7 -19 -11 1
-121 35 7 13 1
102 5 0 11 1
103 20 0 12 1
-143 1 0 15 1
36 14 2 18 1
141 17 -3 14 1
-102 15 -6 13 2
-51 -5 -14 -2 2
151 9 -10 6 2
-45 9 -3 6 2
-139 -6 -33 -22 2
172 35 9 17 2
27 13 0 8 3
-145 7 -14 -1 3
91 13 -5 6 3
63 -21 -23 -7 3
-141 17 -6 5 3
15 4 -9 7 3
160 24 9 12 4
-101 9 -1 5 4
-74 -1 -6 -2 4
137 2 -20 -12 4
-36 5 -11 -3 4
-136 -15 -27 -15 4
105 -10 -21 -7 5
3 -23 -39 -24 5
-169 -13 -29 -20 5
55 2 -14 5 5
98 -3 -16 -5 5
-128 9 -2 8 5
8 20 5 16 6
176 34 19 27 6
-78 6 0 11 6
-47 47 13 27 6
176 34 6 23 6
12 33 16 25 6
-112 14 9 13 6
131 19 10 13 6
61 0 -10 -3 6
-193 -36 -53 -36 6
6 -40 -33 -36 6
75 -36 -46 -40 6
-124 11 -16 -5 6
-66 -27 -36 -21 6
155 8 -17 -3 6
-102 -21 -36 -24 6
-148 -37 -56 -39 6
100 -41 -56 -44 6
-29 -19 -46 -30 6
-138 14 -9 5 6
121 29 15 25 6
135 55 47 54 6
-106 33 44 53 6
96 77 68 81 6
217 88 79 84 6
-32 82 66 72 6
37 90 72 80 6
215 75 56 65 6
0 71 43 72 6
-54 52 44 61 6
185 60 34 57 7
84 69 44 62 7
-100 46 48 43 7
114 40 22 37 7
121 39 25 34 7
-121 25 19 21 7
37 35 28 21 7
157 24 21 21 7
-83 27 9 15 7
-50 25 10 22 7
183 37 23 29 7
-13 26 12 29 7
-136 14 -13 8 7
157 34 13 25 7
46 17 -3 15 7
-137 20 2 12 7
62 3 -10 8 7
115 14 -9 7 7
-130 17 8 17 7
-7 7 -1 7 7
169 24 4 22 8
-83 0 -17 0 8
-85 0 -16 -5 8
139 -1 -21 -12 8
-43 -23 -40 -33 8
-192 -57 -73 -59 8
45 -57 -81 -70 8
-27 -71 -94 -81 8
-241 -80 -97 -83 8
-33 -72 -95 -84 8
39 -82 -92 -74 8
-200 -56 -79 -62 8
-90 -50 -62 -46 8
139 -8 -28 -12 8
-92 -10 -20 -7 7
-103 5 -9 11 7
156 32 -2 9 7
27 23 13 27 7
-132 17 -8 7 7
111 12 0 12 7
54 -13 -25 -16 7
-171 -14 -28 -22 7
13 -1 -25 -20 7
114 -10 -19 -13 7
-125 0 -14 -8 7
-69 -4 -10 -3 7
178 22 18 28 7
-9 49 33 45 7
-70 44 37 50 7
192 62 57 61 7
73 58 47 54 7
-99 55 43 51 7
125 49 37 47 7
154 65 45 54 7
-101 54 39 42 7
55 52 34 45 7
232 75 60 68 7
-55 49 39 47 7
-31 48 32 46 7
228 73 52 56 7
33 79 57 72 7
-39 83 67 74 7
218 93 74 82 7
141 107 85 90 7
-65 86 71 82 7
134 56 50 56 7
150 44 23 31 7
-134 12 -7 7 7
-34 0 -27 -18 7
134 -7 -26 -20 7
-138 -38 -65 -51 7
-143 -36 -63 -59 7
101 -35 -75 -52 7
-85 -57 -96 -65 7
-196 -66 -103 -75 7
58 -50 -86 -54 7
26 -31 -51 -26 7
-193 -32 -30 -22 7
49 5 10 -3 7
112 -10 -3 -7 7
-113 26 18 18 7
-12 17 11 23 8
175 26 22 35 8
-40 46 29 35 8
-46 57 35 50 8
207 52 43 59 8
75 77 59 72 8
-101 65 55 63 8
147 44 30 48 8
90 13 -2 13 8
-151 15 -15 1 8
34 16 -14 3 8
145 18 -19 0 8
-128 -5 -34 -17 8
-71 -4 -27 -16 8
157 3 -23 -9 8
-131 -64 -77 -71 8
-227 -103 -117 -107 8
13 -124 -136 -111 8
-76 -91 -127 -95 8
-243 -73 -110 -71 8
29 -51 -86 -59 8
37 -54 -56 -53 8
-224 -63 -38 -54 8
-25 -31 -16 -33 8
136 -13 -18 -18 8
-115 1 -15 -14 8
-100 -17 -20 -1 8
165 6 -7 3 8
-33 11 -8 5 8
-122 6 -15 14 8
155 30 -2 28 8
129 68 25 45 8
-137 27 -19 18 8
90 31 -9 31 8
158 32 19 41 8
-137 3 15 15 8
4 28 43 35 8
199 35 75 55 8
-65 36 68 40 8
-72 24 58 35 8
189 39 26 31 8
24 44 -3 32 8
-112 33 -25 13 8
152 32 -24 19 8
86 32 -43 7 9
-136 29 -40 20 9
61 13 6 17 9
155 33 81 33 9
-131 20 95 33 9
-20 24 31 12 9
194 26 2 25 9
-59 18 -31 11 9
-85 29 15 33 9
172 23 -18 4 9
19 17 28 21 9
-132 26 40 16 9
102 12 31 18 9
87 17 -1 10 10
-154 16 -33 0 10
53 14 -28 22 10
156 20 -52 20 10
-127 3 -115 5 10
-24 17 7 33 10
173 18 107 40 10
-17 37 171 41 11
-106 3 49 -5 11
147 9 -6 -9 11
29 18 6 -1 11
-160 4 1 16 11
93 8 -31 -11 12
116 22 -39 4 12
-158 8 -37 -2 12
-16 -13 -66 -21 12
154 15 -85 -10 13
-99 15 -98 -11 13
-73 19 -44 8 13
168 6 20 19 14
-3 31 36 13 14
-136 9 -7 -11 14
145 26 -11 -14 15
69 22 73 55 15
-162 7 2 -6 15
67 10 17 26 15
122 12 -28 11 16
-141 5 2 11 16
-22 7 64 38 16
166 16 6 -7 17
-73 4 -47 1 17
-92 4 -54 -11 17
173 13 -24 14 18
-12 14 55 27 18
-167 -3 5 4 18
144 15 0 -8 19
73 8 50 24 19
-135 12 3 -12 19
54 6 -49 -6 20
128 5 -107 -8 20
-143 4 32 22 20
-27 10 124 41 21
182 23 51 16 21
-50 25 -48 -10 22
-90 23 -157 -9 22
176 15 -76 -1 22
11 6 -66 -15 23
-167 -7 -18 -7 23
105 8 10 -21 24
91 13 82 45 24
-153 20 131 45 25
43 25 128 58 25
176 37 73 50 25
-108 16 17 6 26
-51 16 14 23 26
205 34 -17 48 27
-25 39 -47 21 27
-86 26 -98 3 28
165 13 -156 -32 28
21 7 -108 -23 29
-177 -5 -55 -9 30
75 -4 126 54 30
92 -6 96 14 31
-171 -8 11 -24 31
-5 -7 -78 -57 32
160 0 -73 3 32
-102 1 -32 -2 33
-82 1 38 15 33
169 17 -10 -12 34
-18 19 16 31 35
-139 5 36 16 35
141 19 35 45 36
50 16 -43 4 36
-162 3 -77 16 37
85 16 34 31 38
136 29 230 55 38
-137 32 130 32 39
-16 17 -98 -30 39
193 33 -143 -15 40
-49 23 -68 -4 41
-65 27 -65 -29 41
186 25 -145 -15 42
14 26 -33 37 43
-156 11 130 60 43
121 13 217 57 44
88 25 104 14 45
-166 23 -63 -37 45
44 8 -59 -18 46
151 2 1 25 47
-134 -10 -116 -33 47
-44 -6 -174 -10 48
191 22 -145 0 49
-59 20 108 70 49
-103 21 267 84 50
171 28 78 12 51
41 25 -146 -30 51
-168 4 -129 -33 52
114 9 107 18 53
80 3 258 60 53
-175 -1 -11 -50 54
34 -1 -149 -19 55
133 3 -105 -13 55
-119 10 -76 10 56
-29 18 -167 -25 57
205 16 -104 5 57
-30 22 92 44 58
-111 12 206 28 59
183 15 102 52 59
128 17 -42 -1 60
-147 5 130 36 61
82 7 12 1 61
55 10 -107 -33 62
-209 5 -6 -16 63
-34 9 125 32 64
137 18 81 27 64
-160 12 -143 -6 65
-92 11 -211 -12 66
178 31 -54 38 66
-29 21 -45 -20 67
-138 8 -37 -9 68
135 14 89 16 69
58 15 107 27 69
-160 8 97 1 70
55 20 5 36 71
151 29 -185 1 72
-137 15 -158 -35 72
-5 11 -46 4 73
195 29 26 32 74
-97 11 -100 -23 75
-95 10 0 1 75
191 25 201 9 76
19 28 193 35 77
-148 6 -156 -34 78
157 13 -290 -34 78
91 20 7 54 79
-156 36 339 101 80
43 17 315 64 81
142 16 116 11 81
-192 -8 -198 -68 82
-43 -20 -251 -91 83
199 0 -36 7 84
-50 11 -80 -1 84
-104 8 -34 23 85
147 6 -81 8 86
-5 14 65 71 87
-167 21 28 40 88
121 19 -119 -15 88
114 24 12 -18 89
-174 17 88 -24 90
37 9 -142 -36 91
195 -6 -172 -34 91
-115 -38 8 25 92
-52 -25 289 55 93
194 -10 169 23 93
-36 17 -244 -42 94
-117 11 -142 19 95
180 51 179 47 95
57 58 365 140 96
-119 46 -77 -39 97
121 22 -413 -105 97
145 29 -111 -22 98
-180 19 205 42 99
-1 9 369 77 99
170 12 -70 -34 100
-114 -5 -231 -41 101
-78 5 -24 -8 102
181 12 154 66 102
-41 -6 -142 -78 103
-161 -18 -191 -17 104
134 13 -62 -15 104
66 9 63 31 105
-179 9 160 48 105
102 22 -43 8 106
139 15 -366 -86 107
-169 21 -108 58 107
-11 16 337 53 108
206 43 365 86 108
-73 9 -17 -11 109
-116 -5 -305 -96 110
222 55 65 49 110
37 60 432 137 111
-124 41 6 46 111
113 -13 -426 -69 112
57 -7 -3 -11 112
-190 12 377 50 113
35 13 105 6 114
116 -27 -565 -143 114
-150 6 -89 -1 115
-70 10 316 92 115
193 27 265 74 116
-57 15 -344 -60 116
-115 -3 -194 -75 117
180 20 121 27 117
-13 -4 -56 -38 118
-189 -15 -69 -98 118
112 -3 -61 20 119
112 23 199 94 119
-122 53 -21 23 120
134 99 -159 27 120
354 196 438 229 120
-75 82 200 78 121
-77 -14 258 47 121
87 -98 -68 -69 122
-188 -128 -153 -103 122
-245 -80 -101 -87 123
95 -81 -152 -118 123
-14 -56 -181 -87 123
-217 -14 -423 -112 124
45 -49 -155 32 124
171 23 305 108 125
-197 5 168 20 125
-29 -19 -20 6 125
225 5 8 -41 126
-127 -6 98 30 126
-84 38 -88 -80 126
239 19 -263 -95 126
-17 42 179 116 127
-102 81 473 230 127
216 80 322 148 127
75 6 -261 -64 127
-211 -17 -243 -64 128
117 36 44 32 128
189 52 53 22 128
-146 54 22 7 128
3 0 -14 7 128
158 -42 -67 -16 128
-167 -19 -65 -28 128
-121 -11 -123 -39 128
177 -4 -180 -71 129
-53 -21 10 14 129
-205 8 155 65 129
149 5 86 33 129
97 16 -134 -17 129
-187 8 -15 26 129
45 21 174 22 129
174 33 151 45 129
-170 18 -60 -26 129
-49 9 -167 -19 128
232 23 -217 -42 128
-47 37 99 19 128
-114 40 59 27 128
212 37 156 55 128
41 34 -14 15 128
-158 32 -96 -15 128
130 38 30 47 128
117 23 9 24 128
-171 29 -29 19 128
56 21 -53 17 128
232 22 -79 -5 127
-101 26 -57 1 127
-46 29 -5 21 127
257 58 96 78 127
5 68 21 44 127
-122 3 -41 -32 126
207 34 73 71 126
9 -2 163 39 126
-203 12 64 7 125
140 21 -48 11 125
134 3 -93 -27 125
-151 37 97 43 124
-17 19 94 20 124
159 -3 -32 -23 124
-131 -26 -115 -43 123
-117 -26 -64 -33 123
147 -24 -65 -33 123
-49 -8 -64 -11 122
-199 -17 -46 -25 122
134 -7 -85 -20 122
55 4 -50 -6 121
-177 -5 -48 -21 121
48 -4 -40 -6 120
126 21 7 47 120
-151 10 -1 20 120
-36 5 -38 -9 119
173 16 126 19 118
-108 -1 58 -4 118
-108 18 77 28 117
175 19 19 21 117
-18 4 -27 -3 116
-152 1 6 -8 115
132 20 -16 -3 115
89 9 -75 -18 114
-154 2 -49 -21 113
62 20 10 13 113
191 36 86 70 112
-127 15 -12 22 111
-1 17 -34 22 111
168 12 -50 -15 110
-59 36 9 28 109
-118 20 87 33 108
170 22 71 20 108
68 48 99 54 107
-197 47 -35 -13 106
193 49 11 47 106
109 9 -59 -17 105
-157 9 9 8 104
18 2 20 16 103
180 5 -2 6 103
-117 15 4 2 102
-70 -4 -145 -28 101
179 4 -81 -13 100
-55 0 17 2 99
-142 5 118 47 99
170 7 83 32 98
44 -3 -177 -44 97
-217 -23 -204 -86 96
47 -2 60 -3 95
130 0 169 69 94
-200 -8 146 41 93
-25 -12 9 -1 92
166 -4 -32 -16 92
-113 11 24 3 91
-109 17 -31 5 90
202 31 -59 12 89
-22 32 -5 19 89
-171 11 -22 2 88
168 23 -15 16 87
68 24 0 21 87
-193 12 -90 -1 86
57 0 -76 -4 85
112 3 -58 -7 85
-180 -2 2 -44 84
11 28 80 29 83
233 41 5 41 82
-43 52 79 84 82
-87 36 129 59 81
212 18 98 5 80
24 16 46 11 79
-155 1 -37 0 78
149 0 -15 -8 78
97 5 8 7 77
-145 9 -29 0 76
45 -4 -69 -22 75
184 -6 -53 -2 75
-155 -6 -48 -9 74
-83 -15 -69 -20 73
163 -17 -85 -24 73
-65 2 -110 -11 72
-124 15 -68 -1 71
180 16 19 12 70
42 7 74 16 69
-171 -1 -31 -11 69
94 6 -51 7 68
130 11 -14 19 67
-172 9 164 49 66
10 6 145 26 65
162 9 71 21 64
-131 11 -32 -17 64
-55 32 -29 21 63
201 27 -20 21 62
-20 25 -27 7 61
-133 15 -44 5 60
143 10 -35 7 60
49 17 -44 5 59
-170 8 -49 4 58
61 -3 -77 -9 57
129 8 -91 -9 57
-147 -1 -43 -3 56
7 5 33 31 55
191 -9 128 29 54
-99 7 29 -21 53
-92 -2 -66 -4 53
158 15 -58 29 52
47 13 70 37 51
-168 -6 -39 -2 50
98 16 -26 16 49
43 13 4 18 49
-168 14 142 52 48
33 8 187 32 47
152 25 76 16 46
-127 9 -39 -5 45
-45 7 -47 0 45
180 12 -37 6 44
-45 10 -58 -4 43
-113 -9 -57 -12 43
126 -21 -54 -20 42
20 9 -29 4 42
-149 9 -23 8 41
115 -3 -15 11 41
104 15 -15 5 40
-169 1 -10 0 40
41 17 1 16 39
165 13 -9 7 39
-135 0 -14 -6 38
-37 22 15 18 38
176 20 10 16 37
-54 21 10 21 37
-133 21 15 20 36
137 15 -4 9 36
15 16 -2 4 35
-188 5 -10 -3 35
103 23 9 22 34
138 23 7 24 34
-128 9 -5 5 33
27 1 3 1 33
205 31 19 28 32
-75 21 6 22 31
-61 5 -8 7 31
164 -6 -22 0 30
-28 2 -19 4 30
-122 21 -15 13 29
160 26 -8 19 29
75 20 -4 16 28
-169 0 -12 1 27
56 0 -6 -4 27
142 14 3 6 26
-169 -7 -17 -7 26
-19 9 -5 4 25
183 19 4 11 25
-85 18 -5 7 24
-85 11 2 11 23
166 4 -5 10 23
18 17 4 32 22
-119 27 11 27 22
135 19 14 21 21
99 22 19 31 21
-172 -4 -31 -22 20
28 -11 1 2 20
144 5 -19 -16 19
-145 -8 -12 -17 19
51 89 84 114 18
251 93 75 106 18
-36 57 64 64 17
-95 11 14 23 17
180 19 0 15 17
-11 16 26 40 16
-162 10 -27 10 16
101 -19 -49 -24 16
47 -36 -57 -27 15
-190 -5 -17 -9 15
11 -17 -8 -2 15
136 -25 -27 -20 14
-143 -6 -22 -9 14
-73 -6 -1 -3 14
144 -27 -35 -26 13
-73 -15 -26 -13 13
-129 17 0 2 13
187 55 30 33 13
91 57 40 47 13
-147 16 7 28 12
96 29 12 17 12
114 11 -1 5 12
-145 18 -3 2 12
-20 -4 -27 -18 12
157 6 -16 -8 12
-100 17 -2 3 12
-83 4 -11 -13 11
176 19 19 24 11
-16 19 -14 13 11
-130 7 3 31 11
139 18 0 16 11
64 18 3 0 11
-155 23 4 10 11
64 9 2 15 11
121 -3 -31 -33 10
-139 6 12 14 10
-28 3 -29 -10 10
152 2 -32 -34 10
-82 2 -14 -9 10
-103 -1 -49 -50 10
167 18 30 67 10
30 33 10 32 10
-160 1 -4 11 9
147 39 12 11 9
96 30 -8 -5 9
-160 17 -29 -7 9
57 22 9 33 9
141 14 -12 5 9
-131 14 -1 4 8
-49 -5 -7 -2 8
181 17 10 23 8
-49 24 14 22 7
-109 11 8 12 7
157 7 -8 1 7
21 2 -21 -7 7
-179 8 -21 -17 7
117 26 25 39 6
96 6 -56 -37 6
-159 15 30 50 6
46 34 1 11 6
183 39 15 17 6
-112 19 1 21 5
-71 3 -16 -2 5
162 2 1 40 5
-46 8 -22 -7 5
-154 -24 -29 -10 5
152 5 -29 -28 5
60 24 33 21 5
-159 19 -1 2 4
97 21 21 33 4
139 15 -3 7 4
-168 9 -14 -7 4
-3 4 -3 3 4
184 17 2 16 4
-123 1 -18 -2 4
-93 0 -1 2 4
200 19 3 16 4
-39 -9 -21 -13 3
-112 36 4 0 3
138 10 -35 -40 3
63 8 0 11 3
-171 0 8 17 3
81 11 -16 -2 3
146 21 5 8 3
-159 7 -26 -6 3
-22 -4 -30 -10 3
173 15 -10 20 3
-68 32 -32 19 3
-83 17 -37 4 3
191 24 -36 10 3
16 21 0 20 3
-145 15 12 9 3
127 9 45 16 3
101 21 34 17 3
-147 28 -4 23 3
47 22 -10 18 3
172 26 -17 1 3
-131 8 -17 -10 3
-57 -5 23 -5 3
166 3 91 21 3
-69 -5 140 6 3
-122 8 76 -10 3
164 12 -46 -6 3
20 9 -125 -6 3
-148 14 -82 16 4
107 7 -10 27 4
111 24 29 17 4
-152 13 2 -20 4
32 13 4 15 4
180 24 22 42 4
-105 40 82 56 5
-55 19 36 20 5
175 11 -26 -5 5
-22 23 -80 -3 6
-127 11 -71 0 6
159 18 21 30 6
50 10 53 25 7
-162 5 -29 -14 7
84 5 -72 -24 8
126 10 -64 -6 8
-163 -5 -94 -40 9
1 16 -39 -3 9
174 29 -12 28 10
-98 15 124 69 10
-84 13 201 67 11
182 25 175 32 11
16 29 77 12 12
-129 15 -19 8 12
147 16 -49 23 13
72 16 -69 7 13
-159 12 -80 -10 14
74 13 -68 -12 15
161 29 -59 9 15
-141 6 -119 -44 16
-27 10 -96 -2 17
177 11 -105 -38 17
-80 11 51 56 18
-105 11 7 2 19
180 28 68 54 19
31 32 50 26 20
-148 15 5 16 21
135 14 15 -6 21
95 9 107 61 22
-188 -5 122 1 23
23 -7 106 16 23
145 -5 -80 -67 24
-164 -9 -148 -34 25
-45 2 -57 -8 25
175 4 34 34 26
-53 -8 -99 -23 27
-103 6 -222 -52 28
165 14 -85 29 28
24 16 176 88 29
-164 8 172 55 30
100 10 57 -10 31
102 20 -25 -13 32
-156 18 39 25 32
27 31 26 31 33
172 26 -59 1 34
-86 31 -178 -12 35
-43 29 -117 -18 36
181 20 2 40 36
-40 7 143 -13 37
-150 -8 72 -3 38
79 -13 -73 -5 39
16 -10 -126 -39 40
-195 -23 -24 0 41
55 7 123 18 42
160 24 173 27 43
-148 21 137 50 44
2 27 -9 14 44
132 18 -109 -15 45
-96 34 -141 -15 46
-57 42 44 9 47
194 36 47 29 48
32 24 -117 -5 49
-120 16 -169 -7 50
156 8 -112 -23 51
102 21 149 63 52
-126 12 11 28 53
81 10 -48 14 54
181 19 -50 26 55
6 28 92 -16 55
19 16 137 32 56
188 14 11 15 57
-132 11 -29 -5 58
-182 26 59 39 59
93 38 238 71 60
-3 43 -92 21 61
-244 11 -209 -33 62
52 9 -186 -31 63
84 15 142 37 64
-164 10 167 41 64
36 -6 -205 -50 65
120 -16 -246 -68 66
-140 -14 -64 -53 67
-66 -17 231 42 68
177 0 98 5 69
-60 -3 -83 -45 69
-136 0 -14 -39 70
151 8 86 64 71
37 19 -31 37 72
-169 3 -151 18 73
99 26 -34 -7 73
136 29 46 23 74
-178 8 -33 -27 75
12 19 -49 0 76
204 30 -117 -61 76
-115 39 159 71 77
-50 32 193 67 78
206 35 182 41 79
-23 16 -39 4 79
-136 -1 -284 -72 80
162 12 -131 -10 81
48 15 -96 26 82
-181 -3 -68 -21 82
108 -1 -74 -27 83
155 17 177 111 84
-141 25 278 112 85
2 21 206 127 85
239 34 -97 -32 86
-77 7 -132 -61 87
-76 22 35 13 88
215 46 -98 6 88
-24 11 -296 -71 89
-144 12 -52 -29 90
124 1 254 47 91
55 -3 159 55 91
-229 -32 -194 -93 92
36 -19 -220 -53 93
139 18 94 46 94
-148 23 187 65 94
-1 24 4 13 95
215 18 -93 -25 96
-80 18 52 43 96
-123 13 -122 -8 97
170 0 -333 -129 98
30 15 -40 -41 99
-167 17 252 84 99
143 21 -144 8 100
96 4 -59 6 101
-174 16 179 104 101
68 40 337 114 102
196 42 4 70 103
-113 -3 -554 -166 103
-44 -6 3 -31 104
160 14 543 96 105
-47 49 511 154 105
-124 15 5 21 106
165 -18 -513 -147 107
13 -17 -220 -55 107
-205 2 98 20 108
120 -5 -29 -15 108
128 -19 -243 -106 109
-169 -7 -148 -11 109
-7 17 232 115 110
185 11 91 51 111
-110 1 -350 -13 111
-51 1 -185 -59 112
171 7 74 -39 112
-7 9 279 22 113
-105 34 279 49 113
187 64 57 99 114
65 63 139 127 114
-189 19 -390 -125 115
44 -5 -129 -11 115
99 49 406 156 115
-205 46 379 119 116
-12 28 -86 -15 116
164 -6 -276 -69 117
-124 -8 -11 1 117
-127 0 -1 8 118
141 -2 -239 -82 118
-33 -26 -538 -137 119
-152 17 181 82 119
128 34 334 97 119
83 21 294 44 120
-132 36 93 27 120
72 15 -216 -21 120
168 18 149 79 121
-123 -3 -40 -18 121
-61 -29 -158 -64 121
187 -5 -65 -26 122
-64 12 -14 5 122
-139 -32 -98 -48 122
195 22 -25 -8 122
9 -17 75 20 123
-172 -3 41 1 123
134 -1 -43 -4 123
107 6 -119 -19 123
-184 -5 -25 -8 123
55 30 42 36 123
162 9 -90 -17 123
-100 24 11 66 123
-55 9 24 -5 123
176 9 107 21 123
-45 18 43 14 123
-139 4 -9 -31 123
195 39 79 76 123
62 30 37 33 123
-163 24 -2 33 123
84 -13 -55 -28 123
131 8 -93 -22 123
-200 3 -84 -33 123
-3 11 53 31 123
170 16 122 30 122
-105 3 94 2 122
-111 8 -29 -10 122
195 1 -65 -7 122
16 17 -6 11 122
-141 11 -18 -2 121
112 14 -66 16 121
103 5 -65 -32 121
-204 -7 -15 4 121
67 1 -117 -57 120
176 23 -3 9 120
-170 28 -49 -21 120
-25 8 69 41 119
193 15 -48 -7 119
-59 45 88 81 118
-72 32 119 38 118
210 42 125 47 118
11 29 84 24 117
-145 16 -32 -16 117
134 12 -16 -9 116
57 4 -24 -15 116
-187 3 -65 -20 115
49 11 -57 0 115
189 22 -27 8 115
-123 20 16 21 114
-34 4 -31 -10 114
161 -2 -26 -11 113
-133 -11 -26 -17 113
-167 1 -35 -7 112
137 1 -68 -23 112
-2 7 -55 24 111
-183 26 39 38 110
103 31 137 74 110
113 34 96 23 109
-156 26 52 32 108
39 18 9 4 108
160 8 -54 -6 107
-120 0 -5 7 106
-55 15 -19 0 106
206 13 6 -6 105
-30 1 -12 -8 105
-142 -14 -42 -19 104
163 -6 -82 -14 103
43 -1 -103 -10 103
-123 11 -29 22 102
160 18 29 34 101
195 36 18 19 101
-144 14 -73 -14 100
63 44 62 52 99
207 26 113 51 99
-95 23 100 34 98
-97 -13 -81 -54 97
193 32 9 8 96
-67 6 114 63 96
-170 -2 104 25 95
119 -10 -16 -11 94
27 -5 -62 -24 93
-218 -15 -48 -28 93
55 -11 -74 -35 92
103 3 -62 -13 91
-191 -7 -32 -11 90
-26 0 4 -2 90
182 9 -33 1 89
-91 4 -47 -15 88
-99 31 -10 20 88
164 19 -20 8 87
-9 22 2 21 86
-143 24 55 30 86
128 11 49 9 85
107 35 69 32 84
-151 26 24 17 83
80 46 51 64 82
232 60 93 88 82
-93 44 66 63 81
-8 34 -43 9 80
228 35 -13 28 79
-39 20 -9 18 78
-112 7 -10 -3 77
200 12 -12 1 77
-5 9 -39 -20 76
-188 -1 -71 -18 75
85 -10 -111 -25 74
90 -11 -123 -28 73
-195 -32 -106 -54 73
17 -8 -9 -17 72
162 -12 31 -22 71
-139 -16 9 -5 70
-66 1 39 -2 69
186 9 29 37 68
-46 10 48 10 67
-162 0 47 15 67
160 4 45 12 66
49 21 60 19 65
-156 31 -9 12 64
130 24 -41 15 63
138 16 -41 10 63
-171 8 -47 0 62
-28 -1 -60 -15 61
174 12 -51 -1 61
-105 2 -20 -7 60
-87 12 -67 -15 59
177 3 -30 -7 59
-36 -1 -109 -13 58
-169 5 -90 -8 57
138 17 -45 18 57
64 3 35 0 56
-168 3 154 33 55
40 -11 108 16 54
131 14 88 30 54
-121 23 35 27 53
-18 6 -9 4 52
195 30 -8 18 52
-78 28 -17 17 51
-113 27 23 16 50
146 14 -27 17 50
-16 3 -52 5 49
-148 4 -23 3 48
95 -12 -26 -16 48
97 15 -3 8 47
-167 18 -30 11 46
45 13 -27 13 46
197 29 -9 25 45
-116 -3 -56 1 44
-24 31 -62 31 44
221 31 -5 27 43
-48 8 46 9 42
-95 21 104 28 42
150 -8 63 -16 41
31 5 4 -4 40
-158 10 32 9 40
98 8 14 18 39
108 14 38 30 38
-190 1 -15 2 38
-28 0 -42 -8 37
110 6 -24 0 37
-158 9 -23 -3 36
-81 21 -30 3 36
180 8 -28 2 35
-11 12 -16 24 35
-129 -4 -21 2 34
213 51 17 38 34
79 19 -1 21 33
-139 -4 -24 2 33
99 2 -40 -12 32
152 -2 -12 18 32
-103 25 -1 16 31
-13 -2 -8 3 31
224 84 94 103 31
-142 -30 -72 -62 30
-90 16 -1 1 30
164 11 16 18 29
0 24 42 32 29
-139 14 32 28 29
139 20 23 13 28
78 14 9 9 28
-151 30 -6 8 28
64 13 -12 10 27
158 26 2 16 27
-135 7 -17 4 27
-21 0 -20 -12 26
172 0 -17 -8 26
-73 15 3 27 26
-78 40 -15 -7 25
170 17 6 24 25
25 35 1 25 25
-147 16 1 20 24
111 15 -13 6 24
82 10 -14 -3 24
-173 0 -5 1 23
9 -21 -23 -15 23
164 15 15 23 23
-117 14 0 7 23
-45 31 11 21 22
172 7 -5 6 22
-51 7 -14 1 22
-120 9 0 13 22
159 20 2 15 21
47 16 0 12 21
-179 -12 -32 -8 21
120 33 6 21 21
99 2 -12 -7 20
-142 15 13 19 20
3 -1 -15 -7 20
172 32 8 12 20
-106 11 -7 -21 20
-69 13 8 5 20
156 1 -33 -26 19
-21 20 31 60 19
-138 7 -32 -12 19
121 1 -17 10 19
58 8 -32 -21 19
-157 16 26 43 19
51 1 -46 -29 19
136 19 6 17 18
-147 -2 -15 -1 18
2 21 -2 9 18
181 35 20 27 18
-71 32 -2 8 18
-81 13 1 8 18
156 9 2 12 17
-9 5 -3 -6 17
-147 -2 -17 -36 17
120 4 9 17 17
50 -7 -11 18 16
-157 7 -30 3 16
39 -7 -49 -23 16
118 -4 -22 -10 16
-133 9 2 16 15
-16 29 16 17 15
196 31 16 27 15
4 74 55 54 14
-50 73 71 71 14
277 129 104 114 14
101 76 76 81 14
-116 57 37 32 13
99 12 0 -27 13
71 -21 -44 -4 13
-219 -50 -47 -17 13
-43 -52 -105 -73 12
100 -49 -33 -46 12
-173 -49 -91 -75 12
-81 -7 -23 -1 12
141 -26 -52 -16 11
-87 -23 -59 -42 11
-154 -17 -15 -1 11
118 -5 -44 -22 11
38 21 3 29 10
-89 67 52 63 10
134 57 50 47 10
126 15 19 31 9
-142 17 -1 2 9
-11 -9 -4 -2 9
165 21 17 18 9
-88 24 15 14 8
-68 4 -7 -9 8
160 4 -19 -7 8
-16 20 4 15 8
-165 -29 -42 -32 8
111 -11 -9 -6 7
27 -15 -22 -16 7
-192 -22 -41 -27 7
32 -37 -50 -39 7
91 -28 -36 -29 7
-156 -7 -22 -9 7
-23 0 -20 -1 7
175 7 -18 3 7
-75 11 -23 15 7
-87 7 -16 16 7
172 19 -9 19 7
14 26 16 22 7
-151 6 26 3 7
126 22 16 8 7
85 20 -5 0 7
-140 27 -55 4 7
37 7 -102 -14 7
157 29 -87 7 7
-121 16 -14 18 7
-30 13 40 39 7
174 17 10 14 7
-66 9 -101 -5 7
-88 31 -73 15 7
175 29 153 63 7
37 28 344 61 7
-144 10 228 9 7
117 20 72 -1 7
96 32 -27 -1 7
-157 9 -8 16 7
9 5 14 27 8
160 11 -33 19 8
-107 12 -27 26 8
-47 15 -33 0 9
185 21 -28 16 9
-40 25 -78 -5 9
-126 13 -123 -16 10
160 18 -143 -25 10
60 17 -78 17 11
-146 23 27 34 11
92 23 102 44 12
133 29 -1 13 12
-141 21 8 29 12
11 15 49 23 13
180 44 44 12 13
-102 32 -57 -26 14
-64 22 -32 -21 15
176 29 134 59 15
-8 42 173 79 16
-94 31 -12 7 16
164 34 -152 14 17
96 30 -53 -4 17
-136 32 40 54 18
90 34 -21 26 19
152 36 13 73 19
-118 16 114 16 20
14 37 248 68 21
183 28 120 7 22
-36 49 -14 30 22
-106 -6 -34 -6 23
132 -21 23 -19 24
-54 -35 -50 -54 25
-201 -43 -122 -59 25
78 -27 -254 -56 26
70 -12 -271 -62 27
-202 -43 -405 -103 28
-3 -43 -91 -33 29
93 -25 197 0 30
-146 12 324 86 30
-49 20 146 28 31
208 31 -49 20 32
-61 8 -18 7 33
-131 16 100 42 34
163 15 -137 -19 35
42 11 -235 -49 35
-158 -2 -74 -9 36
143 40 239 69 37
138 67 226 114 38
-148 38 -3 31 39
-18 -32 -134 -72 40
109 -67 -27 -56 40
-91 45 67 26 41
-55 28 -71 10 42
226 46 -110 0 43
-35 4 -91 2 44
-148 -3 -84 -22 45
122 7 -86 -10 45
50 5 99 31 46
-169 1 76 -2 47
66 31 -88 -4 48
142 41 -115 -11 49
-139 23 -56 -13 50
-19 20 -10 -25 50
154 43 0 -7 51
-93 32 15 39 52
-83 -7 56 32 53
173 -20 151 44 54
-32 -25 109 0 54
-133 -17 124 33 55
141 -6 139 22 56
127 3 -122 -39 57
-95 -15 -152 -60 58
235 5 -50 -2 59
190 13 34 54 60
-137 13 -88 -18 61
-119 14 -138 -30 62
56 24 -247 -4 62
-150 21 -86 28 63
-144 23 72 17 64
107 15 24 -31 65
-37 26 57 4 66
-171 15 129 31 67
127 33 108 65 67
98 36 217 68 68
-161 17 168 38 69
89 11 -146 -14 70
179 8 -191 -39 71
-130 -3 -126 -48 72
-41 0 182 37 73
171 14 -64 -7 74
-107 -5 -169 -1 74
-109 15 -55 -15 75
162 35 277 91 76
40 44 64 23 77
-154 26 -231 0 78
105 27 -40 -41 78
111 28 110 27 79
-167 19 -118 -45 80
37 12 -294 -90 81
186 28 129 65 82
-119 33 349 54 83
-68 24 32 16 83
189 23 -155 15 84
-8 41 -117 21 85
-133 14 -121 12 86
184 23 -5 -43 86
61 16 30 19 87
-156 34 172 -13 88
115 48 244 122 89
191 44 29 67 89
-128 18 -78 -7 90
21 3 4 17 91
177 1 15 47 92
-145 -13 128 16 92
-92 -21 -202 -111 93
193 -29 -260 -75 94
-47 -11 70 -28 95
-157 -3 249 57 95
149 11 53 32 96
52 -1 -128 9 97
-181 -5 -119 -7 97
75 -14 5 -39 98
128 -4 -26 -29 99
-184 5 -83 -9 100
97 64 -24 123 100
179 15 -193 -57 101
-119 -5 -22 -39 102
-99 26 214 78 102
177 59 512 180 103
20 41 166 70 104
-130 -7 -345 -103 104
108 -2 -346 -79 105
73 18 8 19 106
-145 20 208 34 106
58 12 226 21 107
155 -32 -570 -263 108
-152 -19 -333 -100 108
-68 15 411 180 109
210 38 356 151 109
-43 17 -160 -36 110
-84 0 -247 -81 110
186 15 144 90 111
57 42 285 105 111
-155 -6 -21 -10 112
89 -5 -74 -48 112
77 0 101 35 113
-175 26 98 67 114
-29 -17 -379 -95 114
141 -7 -183 -28 115
-153 18 162 48 115
-113 -5 5 -49 116
143 -6 22 -15 116
-81 17 29 42 116
-166 23 33 23 117
84 3 -62 -13 117
50 15 73 44 118
-188 19 31 39 118
88 47 276 124 118
128 20 -72 -31 119
-143 0 -197 -80 119
-7 28 -65 0 119
199 34 53 42 120
-69 26 27 19 120
-63 15 58 33 120
201 3 -50 -17 120
2 4 -48 3 121
-130 2 -61 -18 121
185 27 -24 28 121
88 -1 -139 5 121
-162 -8 -139 -28 121
72 3 179 57 121
152 -3 101 -13 121
-135 -7 128 14 121
-44 -10 -57 -18 121
183 3 -78 -5 121
-98 -8 -112 -53 121
-101 4 -1 61 121
176 16 92 47 121
23 47 144 65 121
-168 17 9 -9 121
156 17 -70 9 121
99 27 39 30 121
-172 28 107 48 121
57 18 28 11 121
171 20 -39 4 121
-134 16 -18 8 120
-33 16 -6 8 120
174 12 -72 0 120
-31 8 -92 -7 120
-161 8 56 9 120
182 28 80 23 119
67 21 19 7 119
-186 0 -54 -14 119
131 15 15 29 118
121 20 76 36 118
-121 42 33 55 118
46 24 -114 -27 117
231 17 -22 -20 117
-102 21 63 62 116
-53 28 102 44 116
204 24 107 70 115
-31 14 46 18 115
-178 2 -5 -17 114
134 13 -42 -2 114
7 13 -58 -9 113
-219 -5 -15 -13 113
45 1 -40 -17 112
92 9 -74 -4 112
-171 9 -27 -4 111
-20 16 13 12 111
171 23 -61 -12 110
-132 6 -118 -35 110
-85 34 70 79 109
198 21 49 19 109
-11 24 88 45 108
-127 23 15 8 107
141 10 19 28 106
92 21 161 77 106
-164 0 5 11 105
76 4 -43 13 104
158 3 -35 9 104
-114 -11 22 -24 103
-29 -11 35 -25 102
201 -7 -7 -24 102
-93 -11 -73 -24 101
-87 -2 -44 -1 100
205 22 -22 9 99
40 24 -35 13 99
-159 11 -28 8 98
104 3 -43 -7 97
83 7 -64 -4 97
-170 12 -67 0 96
47 15 -24 19 95
148 12 -3 -3 94
-130 22 155 47 94
-64 -3 110 17 93
167 0 93 18 92
-71 8 -37 -13 91
-151 10 -7 14 90
129 12 36 24 90
68 25 45 42 89
-161 16 -27 -2 88
122 20 -24 -1 87
130 13 -33 -8 87
-181 -1 -86 -19 86
-14 3 -73 -15 86
178 8 -9 2 85
-104 13 -53 3 84
-66 32 -111 6 84
185 25 -72 21 83
-30 24 103 28 82
-150 5 215 16 82
143 4 165 9 81
84 33 68 27 80
-128 37 -42 23 80
123 39 -36 37 79
152 33 -21 17 78
-145 8 -21 -11 77
-37 1 -11 -2 77
164 5 -16 0 76
-76 6 9 14 75
-103 -7 -15 -6 74
175 -10 -53 -17 73
-25 -9 -135 -32 73
-174 -12 -193 -42 72
140 -4 -114 -19 71
94 8 25 13 70
-161 15 87 23 69
52 21 111 31 68
179 30 57 19 68
-124 13 56 5 67
-43 0 93 24 66
173 24 13 20 65
-78 22 -58 13 64
-114 16 -36 22 64
156 22 17 20 63
24 27 48 19 62
-156 28 4 7 62
111 23 -55 15 61
142 12 -78 -12 60
-166 7 -59 -10 59
27 -5 -5 -2 59
151 -8 -30 -3 58
-179 -22 -20 -29 57
-121 -49 -34 -17 57
163 6 -2 10 56
-67 0 -9 9 55
-139 1 -17 2 55
131 -4 -13 -11 54
24 0 -81 -9 53
-164 6 -23 11 53
115 32 48 36 52
138 17 98 17 52
-154 7 66 13 51
-18 9 -1 -3 50
146 18 -100 0 50
-95 43 -67 13 49
-87 8 -39 14 48
214 32 69 48 48
3 17 123 47 47
-128 0 21 4 47
165 23 -25 17 46
66 9 -27 7 45
-146 20 -23 5 45
91 11 -18 8 44
111 13 -106 -15 44
-141 -4 -107 -6 43
16 14 -13 23 43
195 22 70 26 42
-66 31 83 6 41
-88 5 53 8 41
172 13 57 20 40
8 20 50 24 40
-161 9 -24 -5 39
127 18 -47 5 39
44 3 -33 2 38
-241 -28 -35 -24 38
37 7 16 17 37
128 15 0 16 37
-163 11 -19 3 36
-36 -7 -33 -5 36
195 13 -19 5 36
-38 24 0 26 35
-56 37 8 33 35
174 -2 -23 0 34
84 55 26 41 34
-179 -23 -25 -21 33
176 40 27 37 33
122 27 6 25 33
-129 19 -1 15 32
54 19 -4 28 32
150 0 -24 -8 31
-117 9 -11 6 31
-47 26 4 18 30
196 31 18 30 30
-45 21 6 21 30
-128 11 -4 8 29
118 -10 -17 -4 29
32 12 -2 9 28
-165 6 -2 1 28
113 23 16 16 27
111 1 -10 -1 27
-159 -4 -11 -4 27
8 3 -9 -1 26
146 12 -14 -7 26
-99 21 4 9 25
-72 -4 -27 -20 25
161 1 -10 -10 25
-1 36 27 51 24
-136 8 -16 -4 24
114 -13 -12 -1 23
73 11 -10 -1 23
-189 -8 1 21 22
79 13 -14 3 22
130 5 -24 -11 22
-125 31 24 33 21
-3 25 6 30 21
180 22 6 37 20
-79 2 -28 -11 20
-109 5 -7 -7 20
155 8 1 1 19
-19 -15 -22 -19 19
-144 9 -3 -1 19
103 9 -3 -3 18
101 29 23 30 18
-130 23 -11 11 18
46 22 2 28 17
208 81 84 111 17
-131 8 -23 -12 17
-42 22 -13 -22 16
188 13 44 36 16
-60 -5 -60 -48 16
-113 19 12 38 16
165 26 -26 5 15
32 2 -21 -11 15
-174 -4 7 6 15
89 2 2 9 15
107 16 -9 1 14
-153 11 8 7 14
26 10 7 16 14
167 26 7 21 14
-114 14 0 4 13
-63 -2 -10 2 13
196 26 -4 7 13
4 47 27 36 12
-95 48 29 42 12
169 23 10 16 12
18 0 -13 -5 12
-167 9 -13 -10 11
57 -7 -17 -17 11
115 11 -23 -26 11
-170 -15 -16 -43 11
-17 -7 25 59 11
150 8 -18 13 10
-102 12 -23 14 10
-77 0 -36 -31 10
151 10 -1 0 10
-15 16 -26 20 10
-143 -1 -40 2 9
148 26 -8 14 9
72 16 7 9 9
-149 21 16 14 9
81 20 3 16 9
129 12 7 12 9
-145 5 -32 0 8
-43 -12 -49 -12 8
166 7 -50 -1 8
-86 11 -8 8 8
-79 15 23 14 7
179 17 59 25 7
11 20 64 18 7
-155 20 45 16 7
135 28 27 23 7
84 16 -37 -3 7
-169 0 -73 -14 6
45 3 -92 -7 6
121 -1 -12 22 6
-125 14 27 22 6
-56 -9 66 -1 6
153 -8 31 -14 6
-60 17 2 -13 6
-120 4 -47 -5 6
177 27 -25 19 6
1 -4 -57 -21 6
-176 3 -46 -10 6
105 11 -62 -19 6
94 10 -44 9 6
-163 14 4 -5 6
20 4 152 21 6
160 25 181 36 6
-111 30 117 35 6
-49 10 -14 6 7
194 24 -56 2 7
-16 38 -6 28 7
-109 17 -4 11 7
165 27 3 25 7
57 25 -5 15 8
-162 14 -77 -1 8
97 22 -142 -3 9
127 18 -121 17 9
-152 14 1 11 9
9 9 52 -10 10
190 25 12 -4 10
-99 12 -31 -4 11
-87 4 -41 -14 11
161 0 4 11 12
-29 15 62 43 12
-140 14 15 25 13
159 30 -18 37 13
62 15 -79 9 14
-160 13 4 28 14
90 18 133 16 15
140 10 87 -10 15
-142 3 46 -4 16
-29 12 -52 -11 16
175 32 24 36 17
-84 11 -52 11 17
-83 22 -3 13 18
157 13 21 55 19
32 32 17 15 19
-130 19 -29 4 20
138 25 -51 8 20
107 25 27 5 21
-160 12 49 21 22
55 28 27 23 22
154 22 43 23 23
-135 10 3 -13 24
-64 -8 -73 -21 25
167 -1 -90 -20 25
-57 20 -131 -12 26
-98 14 -98 -11 27
159 2 -209 -32 28
14 0 11 27 28
-163 20 218 20 29
130 39 171 26 30
108 12 -107 -17 30
-150 10 -61 16 31
-5 -7 239 57 32
191 58 355 103 33
-74 51 70 30 34
-30 30 -237 -19 34
169 6 -207 -4 35
-92 -24 -20 -24 36
-170 -33 -87 -53 37
104 -34 -136 -68 38
7 -15 -106 -40 39
-153 -2 -29 -5 40
62 -6 -27 -24 40
125 6 -20 -24 41
-188 -24 72 16 42
-27 0 134 34 43
174 20 27 19 44
-75 33 -58 -7 45
-38 51 -107 27 46
193 39 -12 35 47
0 25 -87 24 48
-140 -1 -378 -113 48
181 45 -125 4 49
95 33 255 34 50
-134 44 547 123 51
136 39 242 47 52
270 36 -111 -11 53
-97 14 -180 -40 54
-71 -11 27 24 55
77 -7 -74 -4 56
-160 -19 -181 -25 57
-171 -14 -65 -9 58
128 -4 190 42 59
-54 16 86 18 60
-213 5 -178 -55 60
102 13 -171 -26 61
65 17 224 112 62
-196 32 42 40 63
10 8 -216 -27 64
155 11 -254 -59 65
-119 -4 81 -7 66
-34 9 38 23 67
188 13 -74 4 68
-66 10 16 64 68
-105 33 340 79 69
196 29 310 48 70
48 32 -134 -18 71
-151 -2 -173 -39 72
126 5 158 66 73
115 15 115 37 74
-139 15 6 35 74
64 9 -228 -47 75
158 20 42 52 76
-124 23 -60 -12 77
-57 18 -142 -6 78
205 33 -56 11 78
-15 31 -31 -11 79
-160 3 41 33 80
139 25 26 4 81
65 29 13 23 82
-167 5 114 51 82
100 17 135 -26 83
123 22 51 18 84
-148 17 19 13 84
31 37 -109 -7 85
228 47 -10 33 86
-48 42 -48 11 87
-59 30 49 17 87
215 21 78 26 88
-20 4 -9 76 89
-189 0 -27 37 89
165 23 175 58 90
89 10 166 -26 91
-156 -16 -11 -21 91
44 -27 -191 -35 92
114 -24 -93 -23 93
-160 -17 55 -3 93
-40 -20 -114 -19 94
183 -24 -295 -74 94
-143 -24 -98 -28 95
-144 -3 181 -2 96
189 14 170 65 96
7 33 85 46 97
-160 16 -167 -51 97
114 18 -51 17 98
88 26 197 99 99
-144 21 -81 53 99
58 11 -315 -46 100
169 21 119 11 100
-97 46 438 87 101
-22 47 480 131 101
207 13 -42 -3 102
-75 -24 -317 -109 103
-155 -6 -9 6 103
157 9 -173 -15 104
29 5 -233 -37 104
-180 -5 -69 -52 105
101 -5 49 5 105
90 0 -232 -2 106
-173 -17 -297 -67 106
41 6 135 19 107
151 35 478 120 107
-101 41 238 69 108
-54 9 -215 -54 108
176 0 -96 -36 109
-38 9 134 49 109
-137 16 165 49 110
187 19 -207 9 110
95 47 -77 -14 111
-160 19 131 32 111
123 51 253 63 111
143 27 77 8 112
-173 11 -110 -9 112
6 3 -232 -32 113
160 7 -32 -7 113
-198 -32 -60 -76 114
-101 8 -109 -31 114
145 11 -134 -23 114
-35 12 61 41 115
-175 -12 49 5 115
125 24 110 88 115
43 16 -51 14 115
-180 27 45 1 116
32 0 180 40 116
148 41 36 4 116
-147 11 -168 15 116
-18 20 -6 15 116
184 7 39 4 117
-94 3 -78 -72 117
-109 -8 41 -25 117
193 20 54 63 117
-13 17 117 77 117
-141 12 13 31 117
144 10 -113 -38 117
93 10 -19 11 118
-163 12 -21 3 118
58 -14 -144 -55 118
164 -1 -135 -40 118
-129 12 -1 4 118
-35 18 33 40 118
200 8 -89 -29 118
-53 9 8 -1 118
-114 15 113 25 118
178 22 162 48 118
19 17 15 9 118
-157 10 -26 27 118
122 18 87 55 118
136 39 87 47 118
-175 -1 -76 -4 118
14 9 -125 -16 117
185 20 31 12 117
-119 11 43 13 117
-59 13 15 -1 117
155 13 -28 -5 117
-22 25 -12 20 117
-131 1 -13 -12 117
168 16 -28 -8 116
45 6 -92 -21 116
-188 4 -123 -31 116
116 7 61 54 116
160 28 74 47 115
-127 32 114 63 115
48 43 63 47 115
186 32 0 30 114
-94 15 -34 4 114
-89 2 -6 13 114
165 -7 13 -3 113
-55 9 104 18 113
-207 -12 51 -17 112
124 6 1 -2 112
42 12 -43 -3 112
-233 4 -48 -3 111
58 1 -44 -10 111
123 14 -57 -7 110
-159 8 -52 -6 110
-4 13 10 26 109
181 28 36 46 109
-74 31 40 44 108
-111 3 -116 -49 108
196 4 -77 -34 107
0 15 41 35 107
-173 32 117 77 106
141 31 12 67 106
108 32 3 4 105
-164 19 65 18 104
70 19 111 28 104
155 19 44 13 103
-140 3 -55 -28 103
-9 3 13 5 102
242 28 9 6 102
-38 7 -32 -1 101
-86 -1 -56 -13 100
179 -4 -50 -24 100
-8 -3 -58 -17 99
-170 -3 -33 4 99
111 -1 -21 -5 98
88 6 -28 -13 98
-187 12 21 13 97
27 11 -3 16 96
163 29 -37 28 96
-124 8 -132 -49 95
-82 0 -40 -26 94
177 11 160 101 94
-71 13 160 67 93
-133 9 48 9 92
168 8 -42 -36 91
34 -3 -63 -9 91
-194 -7 0 -1 90
90 -3 -11 -18 90
128 9 39 11 89
-156 14 -7 13 89
6 20 -49 7 88
232 39 -4 28 87
-76 33 4 26 87
-46 28 -33 4 86
183 14 -53 -4 86
-54 18 13 21 85
-176 15 47 33 84
132 15 37 13 84
53 7 -93 -26 83
-197 2 -44 -18 82
60 12 28 32 82
133 6 64 31 81
-152 1 37 5 80
-18 16 24 -4 79
191 32 65 23 79
-71 20 -40 0 78
-86 12 -127 -17 77
198 16 -50 1 76
20 13 90 37 76
-137 13 112 21 75
167 19 25 1 74
112 27 -45 -2 74
-150 20 -39 4 73
61 25 3 23 72
168 20 31 47 71
-120 21 -10 12 71
-36 5 -52 -17 70
167 -4 -99 -29 69
-105 -1 -49 -3 69
-147 -5 -21 1 68
146 2 1 15 67
8 10 18 31 66
-152 2 -10 17 66
122 12 -63 -1 65
115 28 -52 -8 64
-157 23 75 24 63
28 12 162 32 62
162 14 51 10 62
-140 -2 -112 -29 61
-71 -4 -78 -24 60
194 9 9 4 59
-42 12 37 19 59
-129 0 -3 17 58
147 5 -2 16 57
53 6 -3 7 56
-162 -4 -59 -22 55
103 0 -104 -13 55
125 5 -53 7 54
-167 3 64 28 53
4 9 66 17 52
189 15 -7 15 52
-106 11 -100 -19 51
-113 21 -48 17 50
135 13 17 32 49
-67 16 83 16 49
-155 22 85 23 48
159 22 52 37 47
74 11 -5 15 47
-127 34 -30 27 46
71 11 -36 0 45
153 21 -23 15 44
-126 5 -5 9 44
-7 4 0 4 43
197 8 16 21 43
-75 6 7 10 42
-82 3 -8 6 41
177 9 -20 0 41
-17 -9 -36 -2 40
-172 -8 -37 -14 39
139 -2 -18 1 39
96 27 3 19 38
-177 23 -29 17 37
13 13 -31 7 37
106 8 -68 -3 36
-166 25 49 28 35
-16 33 109 45 35
199 31 122 33 34
-35 29 65 26 34
-107 7 -8 -5 33
171 -10 -39 -12 32
49 9 -23 4 32
-97 50 8 45 31
138 18 -18 13 30
126 15 -17 2 30
-167 -6 -35 -13 29
21 7 -25 -3 29
192 28 13 33 28
-97 11 -6 14 28
-50 11 -13 2 27
164 -19 -32 -14 27
-61 -9 -24 -15 26
-122 7 4 8 26
152 11 2 16 25
45 9 -5 7 25
-185 -21 -30 -16 24
54 -10 -25 -15 24
91 -8 -32 -15 23
-154 14 -7 4 23
13 12 1 1 22
182 19 24 32 22
-85 23 18 31 22
-75 16 1 20 21
170 10 3 11 21
-12 21 13 22 21
-131 15 2 1 20
130 11 3 31 20
69 19 -8 12 20
-153 16 6 15 19
56 9 -2 6 19
126 15 -4 6 19
-156 -4 -16 -10 18
-36 -6 -9 2 18
155 2 -2 7 18
-99 -2 -17 -11 18
-53 46 17 20 17
159 11 6 17 17
49 72 21 26 17
-135 11 -2 7 17
122 23 0 6 17
90 31 0 -9 16
-166 4 6 -14 16
38 9 12 -18 16
171 34 61 82 16
-116 31 -18 49 16
-40 21 -43 15 16
191 34 -28 0 16
-62 14 -7 0 15
-97 14 20 16 15
161 22 9 13 15
32 21 8 5 15
-159 19 28 23 15
108 10 6 11 15
110 20 -18 9 15
-168 3 -19 4 15
16 4 -21 -2 15
160 21 -3 14 14
-110 31 1 28 14
-57 14 -6 1 14
183 10 -13 -15 14
-69 -13 -4 2 14
-124 2 -35 -20 13
167 29 26 43 13
54 33 -2 14 13
-131 36 -19 1 13
93 16 24 24 13
105 3 -30 1 12
-168 -1 -21 -7 12
8 0 -25 -9 12
164 8 0 2 12
-107 6 -13 15 11
-74 5 -1 10 11
185 17 -9 12 11
-23 17 9 12 11
-165 -4 -8 -8 10
199 36 12 15 10
76 32 15 40 10
-163 20 2 -9 10
93 26 48 52 9
132 7 -6 5 9
-154 14 -11 5 9
3 28 26 38 9
191 31 16 13 9
-96 -1 -25 -4 8
-100 0 2 12 8
165 3 -14 -11 8
-11 1 -15 4 8
-160 -2 -19 14 8
139 27 -3 23 7
102 29 24 28 7
-170 6 5 10 7
20 -18 -32 -13 7
165 13 5 12 7
-136 19 4 12 7
-42 6 -6 -4 6
226 50 22 35 6
-81 10 -2 3 6
-119 16 -3 10 6
194 24 -8 15 6
-3 -11 -39 -8 6
-142 40 -4 18 6
110 5 -16 0 6
112 17 16 21 6
-163 11 15 4 6
38 17 14 5 6
147 -1 -1 2 6
-119 7 23 4 6
-62 1 30 9 6
180 15 29 8 6
-55 11 13 11 6
-129 20 -16 4 6
164 19 -36 24 6
46 21 -45 11 6
-162 12 -94 1 6
100 15 -42 10 6
113 5 -74 -7 6
-147 23 -17 24 6
16 13 -19 8 6
184 16 -82 -8 6
-105 0 -48 -17 6
-99 -1 30 8 6
184 11 178 31 6
-35 6 256 30 6
-143 3 140 8 6
132 18 32 5 7
54 20 66 49 7
-150 20 18 37 7
71 19 -14 18 7
155 24 -81 -4 8
-144 10 -69 6 8
-15 9 -54 7 8
190 15 -96 -15 9
-83 8 -101 -18 9
-87 14 -10 -5 9
169 22 96 63 10
-8 25 25 36 10
-137 7 -88 1 11
146 9 -147 -10 11
80 22 -48 9 12
-144 28 62 35 12
62 24 58 13 12
178 46 82 39 13
-99 37 -71 -8 13
12 55 -7 72 14
231 88 105 44 15
-49 42 239 100 15
-80 41 211 62 16
180 25 50 44 16
14 18 28 37 17
-195 -15 -24 -14 17
57 -48 -79 -39 18
77 -38 -224 -111 19
-182 -22 -120 -54 20
31 -13 -89 -36 20
135 -7 -20 9 21
-147 -5 -41 0 22
-89 -12 -22 -9 22
168 0 76 19 23
-59 2 -68 -37 24
-131 1 -28 -21 25
151 16 -84 -20 26
65 35 50 10 27
-161 2 68 11 27
80 9 14 13 28
101 1 -79 5 29
-192 -17 -197 -36 30
-13 -11 -113 -15 31
186 31 121 38 32
-90 24 134 32 33
-49 31 99 45 33
206 37 -28 24 34
33 74 74 56 35
-107 47 137 72 36
181 26 -40 13 37
40 -21 -209 -61 38
-237 -48 -127 -24 39
-9 -65 76 -35 40
128 -14 178 2 41
-152 5 -51 -42 42
11 58 -85 20 43
198 37 31 46 44
-86 21 90 25 45
-95 21 -35 0 46
180 8 -235 -48 47
-10 5 -103 -9 48
-156 24 89 32 49
151 74 210 88 49
87 46 -125 -17 50
-173 58 -193 -56 51
43 -1 -13 -5 52
137 -5 9 -1 53
-157 -34 8 5 54
-41 -28 189 41 55
190 19 252 130 56
-69 14 131 63 57
-106 -4 -125 5 58
195 -1 -88 -19 59
35 9 39 5 60
-105 13 93 46 61
215 22 -77 -17 62
207 3 -38 -7 63
-84 14 -33 -3 64
29 13 -195 -42 65
100 21 -126 31 65
-227 21 169 62 66
-158 26 313 111 67
132 32 -33 18 68
-115 -3 -228 -24 69
-188 -7 -155 -41 70
120 2 120 32 71
34 16 -5 -27 72
-147 18 0 15 73
108 20 159 44 73
120 32 109 9 74
-169 16 -20 19 75
12 15 -119 5 76
141 29 3 80 77
-139 19 77 11 78
-77 11 -143 -56 78
196 23 -101 -21 79
-1 38 90 52 80
-111 35 52 9 81
171 38 76 -9 82
75 23 -26 -3 83
-188 1 77 58 83
130 21 119 65 84
160 30 -200 -16 85
-131 7 -235 -50 86
-1 4 -38 -29 86
189 29 63 48 87
-89 0 -130 -56 88
-75 1 -80 -35 89
175 11 304 88 89
-7 27 386 112 90
-148 23 -114 1 91
175 17 -321 17 91
93 19 8 -12 92
-187 16 308 68 93
44 20 177 17 94
144 7 -95 -65 94
-144 -1 -96 -14 95
-47 -3 -46 -35 96
133 7 150 85 96
-37 14 -58 9 97
-96 -2 -341 -55 98
212 12 -102 26 98
24 25 222 100 99
-160 13 177 86 99
117 2 -112 -7 100
111 -3 -200 -83 101
-156 6 231 12 101
30 15 248 31 102
170 27 5 28 102
-150 -27 -599 -160 103
-66 -2 0 -2 104
164 16 247 121 104
-43 24 -67 29 105
-121 1 -32 -32 105
172 14 135 -4 106
32 23 330 71 107
-172 10 168 23 107
89 -19 -362 -98 108
116 12 -120 -40 108
-139 33 193 125 109
64 27 22 65 109
185 9 -265 -40 110
-74 5 -353 -67 110
-49 9 130 72 111
212 25 170 -18 111
-38 9 -137 -66 112
-167 -14 -22 -68 112
147 20 131 112 113
30 16 179 56 113
-180 25 137 51 114
64 9 -244 -4 114
104 30 -9 37 115
-210 2 223 53 115
-50 12 65 -14 116
157 17 106 -39 116
-132 16 -44 -13 117
-107 21 8 42 117
148 -3 -217 -48 118
-63 -6 -272 -47 118
-160 -7 -151 -22 119
141 20 137 79 119
80 32 148 22 119
-175 -27 -491 -143 120
55 -14 -150 41 120
169 32 405 122 121
-136 20 246 46 121
-53 -17 -3 -26 121
212 -7 -188 -30 122
-77 15 132 40 122
-97 21 264 54 122
201 -5 -200 -71 123
35 1 -245 -60 123
-170 8 17 2 123
162 1 89 33 123
115 0 -93 18 124
-165 11 -195 -16 124
13 -2 -9 -19 124
159 28 -2 6 124
-153 -1 -75 -47 125
-83 -10 -51 -28 125
195 14 25 39 125
-81 0 -33 -14 125
-118 14 32 22 125
224 17 16 -13 125
52 24 172 38 125
-149 23 108 55 125
141 25 -101 -9 125
120 31 -112 8 125
-168 18 64 5 125
30 5 15 -20 125
165 24 18 37 125
-120 5 -53 0 125
-63 32 6 14 125
208 28 16 20 125
-48 10 -36 -8 125
-146 5 -43 10 125
137 14 -16 12 125
86 14 -24 -4 125
-181 0 -71 -9 125
76 14 5 10 124
184 10 -64 -23 124
-152 9 -56 -9 124
46 12 9 39 124
213 18 -85 16 124
-98 15 -44 24 124
-96 13 153 39 123
183 8 69 -10 123
-12 36 204 76 123
-206 -1 -162 -43 123
147 37 63 63 122
74 29 42 31 122
-209 18 34 5 121
27 28 -24 3 121
141 13 -50 -23 121
-183 4 12 -10 120
-23 8 -22 8 120
196 27 3 38 120
-92 28 20 38 119
-96 25 -4 19 119
199 18 -10 13 118
11 17 -11 2 118
-164 5 -57 -4 117
116 2 -121 -22 117
88 3 -64 -15 117
-165 -2 -3 -48 116
42 -3 97 31 115
165 12 51 13 115
-136 9 -9 2 114
-27 18 -4 9 114
199 13 22 8 113
-65 5 43 34 113
-145 11 73 42 112
149 19 27 11 112
-31 13 -25 -17 111
-215 7 8 7 111
109 9 -48 4 110
89 12 -54 -3 110
-154 7 -14 11 109
29 14 -30 -2 108
170 24 -45 8 108
-108 25 -24 14 107
-53 20 -2 19 107
192 11 0 2 106
-26 14 -82 -31 105
-141 -10 -60 5 105
171 16 18 41 104
46 9 74 31 103
-175 9 87 15 103
106 21 81 22 102
119 12 74 45 101
-158 4 65 18 100
-3 -11 -21 -45 100
176 16 -35 -23 99
-96 4 -43 -7 99
-79 9 -47 -9 98
166 19 -33 -6 98
-6 25 -20 20 97
-137 11 -29 -1 97
160 9 -22 1 96
69 8 -28 -1 96
-185 4 -47 -5 95
47 14 -98 -11 95
122 -5 -36 -5 94
-179 -12 -66 -33 93
-30 -6 9 -29 93
184 19 107 48 92
-91 16 64 27 91
-124 5 23 24 91
150 3 34 11 90
-21 5 32 8 89
-189 1 50 1 89
135 16 52 15 88
77 21 -15 3 87
-186 22 4 21 87
84 20 -23 12 86
170 17 -44 -4 85
-140 0 -54 -21 85
-44 -5 -72 -40 84
191 0 -55 2 83
-64 7 -84 -2 83
-106 7 -64 2 82
198 17 20 18 81
34 24 76 11 81
-144 23 73 0 80
144 22 42 21 79
131 27 49 51 79
-129 34 42 49 78
78 38 51 64 77
207 45 52 30 76
-106 31 48 29 76
-62 23 21 14 75
173 16 -33 -5 74
-54 -4 -56 -17 74
-154 -17 -56 -24 73
153 -4 -45 -16 72
35 -1 -60 -21 72
-184 -16 -60 -21 71
88 -9 -46 -12 70
119 -3 -94 -13 69
-164 0 -142 -43 69
-24 5 -72 -19 68
196 17 43 6 67
-124 0 148 60 67
-74 7 88 49 66
189 14 37 20 65
-19 19 41 27 64
-144 15 70 13 64
149 15 48 26 63
79 23 9 13 62
-155 23 -36 6 62
78 26 -39 13 61
151 32 -28 21 60
-140 31 -5 17 60
-8 46 -31 24 59
192 31 -5 24 58
-96 17 -41 6 58
-99 2 -60 -3 57
135 -19 -96 -19 56
-16 -10 -45 -1 56
-202 -33 -2 -30 55
81 -31 52 -28 54
44 -33 21 -33 54
-169 -1 -68 -17 53
56 13 -130 -2 52
182 23 0 29 52
-120 18 139 27 51
-10 8 186 35 50
173 29 77 23 49
-105 22 -37 5 49
-161 15 -48 6 48
157 23 -18 9 48
42 8 -43 10 47
-130 12 -68 5 46
158 32 -20 48 46
119 16 -24 15 45
-166 7 -7 7 45
25 3 4 -3 44
159 1 -8 -9 43
-125 -3 0 -10 43
-69 -5 10 -4 42
166 -4 5 -4 42
-47 6 -12 3 41
-122 8 -19 12 40
170 11 -77 8 40
31 -11 -99 -17 39
-156 12 -64 19 39
93 16 74 28 38
113 28 139 33 37
-170 19 85 5 37
-25 15 -23 -1 36
145 16 -42 10 36
-123 2 20 1 35
-68 20 65 21 35
196 28 26 24 34
-24 8 -39 -3 33
-116 9 -33 7 33
145 0 -27 0 32
97 27 2 30 32
-143 5 -21 14 31
104 22 -5 21 31
168 6 -15 7 30
-139 -5 -31 -13 30
-35 -18 -29 -13 29
152 -5 -25 -16 29
-123 -30 -45 -30 28
-99 15 -21 -10 28
184 14 6 20 28
23 30 16 27 27
-132 31 14 25 27
104 -3 -10 14 26
88 17 -4 13 26
-170 3 -4 2 25
58 16 -3 10 25
165 28 7 23 24
-107 33 14 19 24
-24 26 14 17 24
183 18 33 43 23
-43 24 10 24 23
-103 17 -6 12 22
162 27 7 25 22
-32 -30 -46 -16 22
-143 7 9 32 21
89 7 -1 5 21
85 3 -23 -1 20
-144 4 -7 -2 20
15 0 -22 -18 20
148 16 2 17 19
-105 13 -1 10 19
-35 28 16 28 19
179 28 18 27 18
-48 24 12 13 18
-118 6 -16 -15 18
133 5 6 23 17
32 10 0 22 17
-167 -3 -16 -6 17
148 62 37 37 17
123 34 12 18 16
-142 31 7 4 16
16 17 10 4 16
150 8 16 23 16
-120 13 -12 5 15
-70 9 -33 5 15
166 6 -33 -12 15
-30 11 -3 1 15
-144 5 0 8 15
148 26 3 12 14
70 35 15 21 14
-131 37 8 19 14
58 0 -11 -2 14
135 20 -5 2 14
-150 9 -13 -6 13
-32 -7 -7 1 13
161 15 -25 -13 13
-80 7 -17 -17 13
-95 7 -1 -9 13
174 22 -1 25 13
17 33 -2 21 12
-145 7 -2 12 12
131 15 19 30 12
74 1 -28 0 12
-148 16 -19 3 12
62 21 -8 8 12
147 17 31 34 11
-141 12 12 23 11
-17 21 5 14 11
159 13 0 24 11
-78 4 -12 -21 10
-119 4 -5 -1 10
158 2 1 28 10
-17 -15 -30 -5 10
-167 3 -21 8 9
115 20 -12 2 9
114 32 9 12 9
-155 8 -5 6 9
53 31 4 11 9
165 24 0 0 9
-101 32 8 17 8
-51 15 7 28 8
170 5 -14 0 8
-56 9 -8 5 8
-101 25 1 9 8
163 13 -3 13 8
43 24 5 18 7
-176 -5 -29 -3 7
116 30 -6 13 7
115 13 -4 9 7
-150 15 1 15 7
3 -2 -20 -4 7
181 22 -51 -6 7
-118 0 -61 -8 7
-80 14 -22 0 7
190 14 -1 8 7
-33 3 -11 6 7
-161 -8 -6 -4 7
152 18 55 31 7
60 10 102 4 7
-175 4 75 -3 7
77 7 6 -12 7
135 14 -59 -2 7
-148 12 -14 14 8
-17 2 20 10 8
176 11 31 15 8
-95 13 -102 -35 8
-98 10 -80 -7 8
181 15 -41 -11 8
-17 20 148 77 8
-137 10 32 15 9
141 15 -110 -8 9
82 23 -137 -8 9
-175 14 93 27 9
50 17 204 81 10
138 17 183 55 10
-137 8 40 21 10
-25 1 -25 -5 11
196 24 -59 -12 11
-56 15 -126 -21 12
-92 20 -231 -41 12
158 8 -290 -54 13
7 23 -193 -17 13
-135 17 27 28 14
119 17 281 77 14
120 18 216 56 15
-157 20 165 18 16
27 32 118 16 16
170 38 105 37 17
-85 31 -21 15 18
-30 40 -119 2 18
202 42 -50 32 19
-21 41 14 17 20
-95 40 -27 17 21
149 24 -177 -17 21
24 6 -117 13 22
-154 13 -29 40 23
111 18 -26 12 24
109 20 -35 28 25
-113 34 72 25 25
17 24 265 41 26
166 41 305 66 27
-72 19 15 -23 28
-88 -23 -169 -58 29
125 -21 -247 -57 30
-50 -20 -123 -46 31
-172 -23 -99 -4 31
104 -19 70 9 32
38 -6 82 1 33
-173 0 7 -30 34
59 9 -51 2 35
138 4 -91 -1 36
-155 -6 -17 -4 37
-16 0 -70 -13 38
172 9 -160 -6 38
-73 25 -129 4 39
-55 41 100 27 40
191 50 188 61 41
33 41 65 -6 42
-139 -1 -1 10 43
103 -10 64 0 44
20 -20 198 10 45
-209 -28 108 -14 46
17 -27 -207 -74 46
127 -10 -319 -76 47
-149 16 -105 5 48
-44 14 -147 -31 49
184 30 -72 -8 50
-71 37 46 6 51
-105 34 197 69 52
161 27 123 32 53
9 36 -11 -16 54
-161 23 -36 -18 55
135 31 -62 20 56
107 9 122 78 57
-107 -9 93 41 57
195 -7 79 25 58
354 14 3 27 59
-52 -2 -193 -22 60
-86 -5 -109 -12 61
60 15 84 43 62
-174 1 -129 -81 63
-202 -9 -273 -79 64
118 14 63 23 65
-39 33 288 91 66
-236 29 302 105 67
88 20 -41 -6 68
101 9 -261 -42 69
-211 6 -39 16 70
12 13 199 43 70
176 25 -11 -12 71
-98 1 -194 -59 72
-59 7 -143 -19 73
197 18 104 53 74
-14 23 182 58 75
-134 24 131 44 76
165 26 36 24 77
63 48 -15 -1 78
-162 24 -245 -64 79
65 10 -185 -33 79
165 29 88 33 80
-147 27 47 33 81
15 21 -179 -69 82
194 32 -224 -99 83
-75 36 245 130 84
-79 27 99 63 85
206 27 125 68 85
38 17 18 30 86
-137 12 93 13 87
152 4 -257 -60 88
87 5 -187 -21 89
-134 29 143 53 89
108 39 99 -2 90
153 45 -30 -17 91
-126 30 12 53 91
8 34 228 142 92
197 34 81 72 93
-70 3 -191 -52 94
-130 -12 -47 -46 94
135 -4 106 33 95
-26 -17 -59 -34 96
-193 -37 -179 -89 97
83 0 129 0 97
95 23 191 85 98
-160 0 -93 -1 99
61 -1 -197 -33 99
164 -1 -27 28 100
-137 -4 -101 -71 100
-67 -9 -92 -22 101
187 15 117 -3 102
-58 11 218 48 102
-114 33 -9 33 103
176 16 -231 -52 104
57 33 153 112 104
-160 20 -25 -5 105
41 -19 -112 -24 105
130 -1 -63 -77 106
-161 8 304 109 107
26 25 206 54 107
184 3 -267 -81 108
-87 5 -88 22 108
-92 4 236 86 109
190 15 83 28 109
-44 -11 -182 -50 110
-142 -6 -66 -62 110
205 28 30 24 111
75 18 35 14 111
-149 23 45 45 112
69 21 104 57 112
125 29 98 45 113
-169 -3 -190 -82 113
-25 -2 -136 -34 114
162 14 88 28 114
-140 8 64 21 115
-129 0 -132 -37 115
138 -1 -131 -42 116
-54 7 -79 -5 116
-192 -1 -9 -9 116
131 21 24 28 117
71 9 59 13 117
-167 20 -15 25 117
38 8 63 13 118
165 28 45 -2 118
-140 16 115 8 118
-27 15 30 8 118
226 27 -63 12 118
-58 14 -23 17 119
-88 12 -48 14 119
188 4 -77 10 119
27 4 -73 -33 119
-155 7 -20 -21 119
146 15 -13 -6 119
130 19 47 22 119
-156 13 73 46 119
49 13 56 33 119
173 19 30 16 119
-139 -1 35 23 119
-60 -7 -8 -9 119
195 8 -113 -31 119
-68 0 -219 15 119
-121 11 32 -7 118
154 -3 136 20 118
47 17 130 3 118
-176 -2 -3 -13 118
123 15 -53 13 118
111 20 -6 10 117
-181 11 -14 -1 117
28 21 -49 14 117
247 36 18 27 117
-104 9 -22 -13 116
-15 19 25 9 116
199 30 -36 13 116
-36 23 -65 6 116
-99 22 16 18 115
194 32 50 30 115
76 28 140 73 114
-172 20 42 32 114
73 1 20 15 114
111 20 55 22 113
-187 12 18 29 113
-31 0 -65 -12 112
134 -4 -56 -34 112
-157 -6 45 -5 111
-143 -3 69 12 111
154 0 -11 -12 110
-30 15 -61 0 110
-148 6 -27 7 109
150 21 -11 13 109
104 23 -32 10 108
-164 22 -43 0 108
99 23 -66 -21 107
158 30 -34 26 107
-128 22 -59 34 106
-24 17 63 46 106
198 15 44 7 105
-79 2 15 -27 104
-137 2 151 69 104
166 4 66 49 103
5 12 57 34 102
-160 -12 -38 -22 102
136 -1 -73 -29 101
115 10 -19 0 101
-152 12 -26 -1 100
49 11 -50 -15 100
169 6 -30 3 99
-147 -3 -22 -5 99
-64 2 -52 -14 98
186 15 -40 3 97
-65 14 -4 21 97
-124 17 19 13 96
167 15 -28 -2 96
34 15 -40 -9 95
-167 9 27 30 94
107 6 36 22 94
141 36 78 20 93
-152 7 59 15 92
17 0 61 15 91
175 9 63 9 91
-134 -4 7 -4 90
-101 -1 -17 -17 89
143 -5 -47 -12 89
-72 2 -57 -16 88
-135 4 -37 -8 87
141 8 -30 -8 87
83 8 -32 -7 86
-165 4 -12 2 85
71 13 -2 5 85
134 19 -19 14 84
-159 23 -52 -3 83
-13 19 -42 20 83
200 33 16 43 82
-85 19 45 40 81
-80 17 55 17 80
191 8 14 -1 80
-18 9 72 43 79
-156 1 32 9 78
160 6 7 32 77
84 14 -26 -9 76
-171 13 22 4 76
65 17 88 21 75
163 29 43 10 74
-128 29 -20 17 73
6 17 -30 23 73
221 29 -6 24 72
-37 27 -13 27 71
-68 32 -21 25 70
213 38 -2 22 70
42 33 -8 25 69
-155 2 -70 -6 68
120 -17 -120 -29 67
61 -32 -86 -37 67
-209 -34 -18 -23 66
-10 -39 72 -19 65
108 -17 37 -18 65
-179 -19 57 -11 64
-78 -9 59 15 63
174 9 3 15 62
-63 19 -58 7 62
-143 13 -65 -2 61
171 21 -12 -4 60
42 23 66 16 59
-158 14 0 -10 59
142 17 0 11 58
162 24 -17 21 57
-127 35 -8 30 57
43 33 4 35 56
185 37 8 39 55
-108 16 -12 12 55
-73 7 -33 7 54
164 -3 -11 1 53
-57 -2 -34 -8 52
-158 -15 -24 -19 52
127 -11 -21 -11 51
33 -11 -17 -16 50
-212 -2 -4 -2 49
3 0 -37 1 49
72 9 -92 -20 48
-157 1 -40 2 47
16 8 41 24 46
192 17 64 17 45
-80 7 -5 -5 44
-104 12 -53 -14 44
204 35 59 36 43
25 24 88 32 42
-113 21 75 17 41
155 20 7 23 40
87 10 -41 12 39
-147 0 -23 9 39
53 2 -9 -1 38
153 22 36 25 37
-122 29 8 17 36
-51 10 -23 -3 36
147 9 -36 -5 35
-125 -17 -40 -20 34
-134 5 -20 9 34
144 -5 -27 3 33
45 40 3 15 32
-188 15 -34 -14 32
139 18 2 17 31
96 -11 -34 -12 31
-152 7 -4 1 30
69 25 12 22 30
179 21 4 16 29
-118 9 -3 -4 28
-49 6 -9 5 28
200 30 19 28 27
-35 28 13 29 27
-119 9 -12 0 26
141 -6 -17 1 26
19 -9 -32 -15 25
-168 -10 -15 -3 25
120 35 21 23 24
147 35 36 34 24
-149 12 9 21 23
11 16 -29 -12 23
164 11 -19 -7 22
-108 13 2 23 22
-82 13 17 16 22
173 4 -6 47 21
-42 5 -41 3 21
-182 -30 -61 -34 20
54 -57 -78 -56 20
50 0 -13 -7 20
-153 12 1 15 19
75 21 8 18 19
121 11 11 15 18
-118 23 27 32 18
1 32 24 25 18
184 32 25 32 17
-76 24 5 7 17
-99 1 0 1 17
193 42 40 45 16
73 100 91 98 16
-143 16 -10 -9 16
162 39 51 68 15
15 -57 -124 -82 15
-126 51 31 68 15
56 16 -26 -6 15
130 -5 -39 -28 15
-159 -10 -22 -5 14
-86 -32 -55 -42 14
94 -54 -68 -61 14
-79 -19 -27 -24 14
-134 -11 -20 -15 13
191 49 44 49 13
31 21 23 33 13
-126 31 14 18 12
147 54 43 48 12
85 5 -12 -9 12
-165 -4 -8 -4 12
26 -3 -14 -12 11
145 8 0 18 11
-141 -11 -16 -9 11
-71 -9 -54 -28 10
150 -8 -15 -11 10
-54 14 -47 -53 10
-124 14 25 33 10
199 66 52 60 9
50 36 -3 3 9
-146 15 -25 21 9
84 1 4 35 9
96 3 -25 6 8
-157 8 -11 4 8
21 15 -9 2 8
171 3 8 8 8
-105 12 6 10 7
-97 -13 -8 -16 7
167 1 -1 -10 7
-26 14 -19 -3 6
-123 26 7 2 6
138 7 3 21 6
49 -4 -15 -6 6
-192 -18 -33 -23 5
72 14 -19 -10 5
157 40 9 16 5
-133 20 12 48 5
48 62 38 63 5
179 19 11 19 4
-89 9 -1 7 4
-99 -7 -22 -11 4
162 13 -5 7 4
11 37 19 23 4
-114 37 -1 4 4
109 -15 -30 -26 4
64 10 -18 -4 3
-180 -6 -4 -11 3
49 1 -3 -6 3
125 -6 -23 -2 3
-155 -6 -25 -11 3
-54 -8 -32 -10 3
166 1 -35 -1 3
-55 22 -24 9 3
-121 8 -6 8 3
147 4 -1 -1 3
36 33 10 14 3
-161 15 -51 -11 3
125 21 16 17 3
111 14 42 27 3
-161 10 50 13 3
37 13 21 16 3
164 21 -46 0 3
-113 14 -59 3 4
-40 34 -60 5 4
186 13 -28 23 4
-35 15 74 24 4
-127 -7 126 19 4
170 16 103 15 4
46 27 16 -1 5
-169 15 -67 -9 5
116 23 -51 8 5
121 22 -11 63 5
-168 3 -82 1 6
9 6 0 40 6
168 11 -18 23 6
-113 8 -47 1 7
-75 18 -87 -8 7
191 15 -103 -40 7
14 42 96 39 8
-120 34 117 56 8
188 38 154 61 9
69 21 46 47 9
-162 31 73 36 10
78 9 124 40 10
136 5 62 -12 11
-178 -17 -49 -43 11
-25 -11 -70 -34 12
176 9 -42 -9 12
-76 21 -68 -5 13
-66 25 -119 -11 13
198 35 -165 11 14
23 40 -41 14 15
-79 95 11 104 15
187 68 -105 5 16
110 35 -153 -7 17
-169 6 -6 8 17
-12 -20 291 92 18
121 -2 255 58 18
-162 -10 96 9 19
-28 12 23 4 20
192 40 80 23 20
-93 -12 32 -38 21
-112 -7 -132 -60 22
98 -40 -142 -33 23
-11 -15 -66 -12 23
-136 9 61 32 24
106 17 -45 -19 25
72 -16 -131 -54 26
-200 -37 -145 -49 27
-22 -43 -104 -46 28
147 -12 -62 -29 28
-100 21 -71 -59 29
-77 1 55 26 30
167 13 113 64 31
-35 24 63 80 32
-78 18 -87 23 33
180 43 -176 -6 33
53 35 -65 20 34
-150 9 88 23 35
91 14 170 29 36
107 13 108 -17 37
-151 -5 28 -15 37
13 3 -22 -14 38
226 101 -40 74 39
-41 71 -76 67 40
23 75 31 59 41
174 18 94 54 42
-64 -6 166 22 42
-211 -42 46 -39 43
53 -55 -48 -89 44
-6 -44 -101 -89 45
-164 8 -8 -11 46
61 7 -35 -19 47
116 -1 -155 -61 48
-191 -29 -271 -70 49
-49 8 -1 -3 49
165 37 270 138 50
-77 33 140 29 51
-77 43 -109 6 52
204 64 -133 -7 53
13 68 -90 -11 54
-101 27 -86 -23 55
231 12 26 40 56
339 -5 125 19 57
-80 -17 157 73 57
63 -15 33 38 58
38 -9 -31 -8 59
-293 -21 -118 -41 60
-116 4 50 17 61
148 30 125 54 62
-117 13 292 93 63
-162 24 70 37 64
146 23 -219 -47 65
-8 20 -187 -8 65
-187 9 88 23 66
101 13 -77 -7 67
83 -3 -354 -91 68
-179 10 -80 -35 69
58 14 364 105 70
198 29 306 74 71
-97 11 -30 8 72
-61 0 -147 0 73
146 18 13 8 73
-24 27 -1 9 74
-122 20 -103 -72 75
183 35 68 43 76
50 35 96 26 77
-195 30 -73 23 78
92 11 -94 -15 78
127 17 9 -21 79
-162 13 45 18 80
0 13 -94 -2 81
189 22 -176 -29 82
-90 15 -81 3 82
-52 9 -169 -89 83
206 56 170 52 84
7 33 395 169 84
-117 19 309 98 85
162 17 -42 -27 86
77 2 -354 -83 87
-175 15 -175 -26 87
89 14 131 42 88
154 19 278 82 89
-145 4 -104 -7 89
-4 17 -58 21 90
214 29 124 58 91
-68 24 84 -8 91
-76 3 -183 -48 92
191 -1 -251 -17 93
-20 1 54 25 93
-183 -3 206 6 94
137 17 3 30 95
78 13 -410 -34 95
-183 8 -63 -3 96
54 5 429 151 97
145 1 247 3 97
-161 -11 -151 -84 98
-47 -13 -211 -48 98
198 11 57 23 99
-73 27 80 60 100
-99 4 -281 -44 100
192 23 -68 24 101
15 22 278 80 101
-130 11 83 5 102
120 7 -122 -61 103
141 13 -159 -27 103
-177 2 -50 -40 104
-3 -9 -26 -16 104
180 17 16 37 105
-155 0 192 53 105
-58 16 26 -63 106
195 15 -60 -31 107
-59 18 36 70 107
-124 17 207 116 108
171 14 -71 -13 108
38 -5 -262 -75 109
-175 -11 -8 8 109
120 13 198 62 110
135 -3 -249 -83 110
-168 -3 -286 -36 111
35 31 45 14 112
224 86 397 156 112
-105 43 142 53 112
-42 -9 -386 -87 113
157 4 -8 -26 113
-103 -23 122 -4 114
-164 23 275 105 114
91 -18 -28 -31 115
13 9 -9 1 115
-205 24 33 -12 116
49 8 -47 -2 116
108 14 -10 10 117
-189 5 -37 2 117
-55 -39 -415 -155 118
142 -2 -129 -42 118
-109 29 168 77 119
-88 26 240 85 119
206 12 -95 -45 119
12 3 -252 -55 120
-159 1 -182 11 120
149 23 205 52 120
108 25 181 29 121
-210 -37 42 -33 121
89 -5 -124 -51 121
173 -6 -130 -1 121
-117 25 71 33 122
-36 -15 83 50 122
239 41 30 36 122
-20 50 13 11 122
-92 10 18 7 122
218 22 -14 5 123
43 24 -15 12 123
-178 -7 3 -14 123
99 -1 -42 -16 123
142 9 -115 -5 123
-157 20 -52 5 123
48 24 126 49 123
177 6 65 28 123
-154 -4 32 23 123
-94 -21 -106 -40 123
190 9 53 46 123
-91 -3 66 26 123
-150 36 -49 22 123
216 21 -17 5 123
73 25 16 20 123
-135 20 -18 -1 123
101 28 80 59 123
137 41 38 29 123
-163 32 57 35 122
29 27 6 10 122
203 23 -51 -15 122
-143 9 -32 -5 122
-111 -1 -19 5 122
229 9 -24 -5 122
-41 2 -70 -14 122
-163 -3 -35 -19 121
171 -1 -20 7 121
64 18 47 35 121
-183 16 32 30 121
79 13 -61 -23 120
158 29 -15 17 120
-164 10 14 25 120
-40 -1 6 8 119
176 5 146 86 119
-106 4 -14 8 118
-102 8 28 -13 118
217 30 55 4 118
14 26 78 39 117
-162 -3 19 21 117
118 -7 -78 -10 116
86 -5 -58 -26 116
-168 16 23 13 115
66 29 -3 14 115
216 29 -54 -3 114
-136 23 -17 16 114
-35 19 -20 0 114
184 27 -35 9 113
-108 13 -47 -7 112
-155 30 37 55 112
170 30 8 5 111
-20 17 28 32 111
-196 16 -53 -19 110
79 21 -15 23 110
53 -6 80 37 109
-194 23 104 42 108
25 1 77 15 108
171 9 -23 -17 107
-145 -12 -64 -37 106
-75 -11 -42 -9 106
183 -8 -51 -24 105
-52 -5 -49 -19 105
-134 -11 -51 -23 104
191 -1 -49 -16 103
59 11 -41 -5 103
-152 3 -55 -11 102
114 12 -23 17 101
128 22 23 59 101
-130 24 -154 -30 100
27 14 -21 7 99
186 33 135 67 98
-113 23 218 98 97
-39 39 160 84 97
189 35 7 9 96
-29 16 -35 -9 95
-87 6 -6 9 94
160 4 -50 -10 94
69 -7 -41 -26 93
-199 -19 -28 -22 92
4 -23 -41 -28 91
81 -9 -32 -24 91
-202 -15 -49 -26 90
-77 -13 -30 -15 89
135 3 -19 -2 88
-123 16 -132 -17 88
-110 22 -73 12 87
184 26 32 39 86
13 28 123 51 85
-158 11 124 47 84
168 8 22 -7 83
110 12 38 22 82
-132 32 80 36 81
123 51 63 48 81
246 66 28 46 80
-85 46 26 29 79
-1 33 12 25 78
198 16 -44 -10 77
-78 8 -39 -14 76
-129 8 -28 5 75
162 6 -49 4 74
6 -3 -71 -15 73
-168 -24 -149 -48 72
93 -31 -107 -55 71
82 -27 -15 -23 70
-174 -22 31 1 69
22 -11 9 9 68
166 -7 33 13 67
-149 -5 96 -3 66
-71 15 157 24 65
178 29 43 27 64
-65 39 -33 33 63
-99 52 -22 35 62
200 28 3 14 62
51 25 -3 11 61
-144 15 -28 4 60
88 -9 -50 -13 59
105 2 -59 -6 58
-171 -12 -106 -19 57
-27 -32 -156 -38 56
156 -15 -34 8 55
-143 -20 45 -10 54
-99 -31 15 -3 53
168 -8 -135 -28 53
-7 15 -91 0 52
-142 12 38 28 51
133 9 230 47 50
62 5 214 62 49
-145 21 105 37 48
88 19 -3 10 47
146 20 -58 -2 47
-164 10 -53 0 46
-67 20 -50 1 45
97 -5 -71 -12 44
-143 9 -51 -1 44
-151 2 -38 -2 43
188 14 -8 23 43
31 21 -4 19 42
-103 16 -9 11 42
162 -17 -17 0 41
135 25 -7 7 41
-103 18 7 21 40
83 14 -4 14 39
149 6 -12 1 39
-152 -2 -25 -4 38
-75 9 -19 -6 38
211 47 33 35 38
-63 8 -26 0 37
-93 20 -13 17 36
161 19 -58 0 36
50 29 45 39 35
-152 14 57 12 35
121 25 64 28 34
112 24 5 8 34
-151 5 -33 -1 33
24 11 -18 6 33
189 39 21 36 32
-79 38 14 35 32
-47 38 1 18 31
179 4 -11 0 30
-36 9 -10 10 30
-128 7 -11 9 29
165 32 11 27 29
65 37 21 35 28
-151 19 -1 19 28
77 -5 -8 5 27
85 -29 -31 -20 26
-158 1 -17 -3 26
-1 5 -4 6 25
150 3 -2 5 25
-83 24 -2 10 24
-113 -13 -16 -17 24
167 32 8 10 23
-45 -15 -26 -19 23
-170 -24 -38 -27 22
111 -8 -18 -5 22
50 16 -19 -7 21
-152 23 1 11 21
77 19 6 19 20
151 35 11 20 20
-131 15 8 1 19
-33 -10 -11 -11 19
188 32 33 52 18
-94 2 -30 -11 18
-88 13 -7 4 18
150 -5 -26 0 17
-5 13 -7 22 17
-146 28 -34 -5 17
110 9 -3 10 16
102 38 13 26 16
-138 31 17 39 16
37 6 -21 -1 15
149 20 -9 9 15
-117 28 16 33 15
-54 10 15 23 15
200 29 24 27 14
-59 18 17 9 14
-126 16 10 9 14
161 12 -12 -14 14
34 17 12 16 14
-182 5 -11 -12 14
107 15 -10 3 13
113 21 -13 -3 13
-135 30 35 45 13
-1 -6 -32 -19 13
175 23 0 3 13
-130 3 -11 -15 13
-59 16 -12 -9 13
172 8 -15 -9 13
-34 32 5 13 13
-124 21 15 34 12
146 12 -23 -3 12
28 3 -31 -9 12
-164 2 -23 -16 12
83 10 3 5 12
129 9 -9 16 12
-154 5 -10 -3 12
1 19 13 16 12
182 28 9 20 12
-97 -2 -33 -17 11
-75 14 -6 17 11
162 5 -16 -1 11
-20 8 -13 2 11
-144 4 -1 5 11
128 17 8 13 10
71 25 7 14 10
-162 15 7 14 10
78 21 -4 2 10
149 19 6 6 10
-156 -12 -49 -32 10
-37 -32 25 24 9
198 29 75 60 9
-127 -41 -113 -111 9
-85 22 46 87 9
160 14 -38 -6 9
6 18 -13 16 9
-151 13 0 18 9
107 -1 -34 -30 9
96 16 -6 8 9
-172 7 -7 15 8
42 9 -28 -18 8
154 17 -11 3 8
-130 17 3 6 8
-42 9 -5 -1 8
192 26 14 18 8
-49 21 3 13 8
-100 34 27 35 7
160 -2 -18 -12 7
12 -7 -13 -11 7
-153 20 3 21 7
118 27 8 30 7
119 25 -17 12 7
-160 6 -47 -12 7
4 1 -63 -13 7
176 25 -66 7 7
-122 3 -55 -6 7
-81 -3 -25 0 7
182 9 42 0 7
-45 10 78 10 7
-142 1 37 -7 7
156 15 -13 0 7
51 0 -62 11 7
-149 25 -11 16 7
90 16 94 20 7
137 23 77 16 7
-154 11 72 20 7
-3 13 43 25 7
168 18 59 8 7
-95 19 36 1 7
-82 13 22 22 7
201 16 -71 4 7
3 18 -116 -11 7
-138 12 -158 -2 7
152 10 -51 21 7
72 13 23 25 7
-174 13 50 33 8
67 15 35 13 8
138 13 -3 18 8
-145 9 24 27 9
-4 14 44 9 9
185 25 136 28 9
-82 16 109 16 10
-99 6 -4 -5 10
178 15 -133 -24 11
6 16 -181 -17 11
-160 8 -89 -2 12
128 20 60 17 13
103 37 167 62 13
-130 49 71 40 14
98 67 -99 19 15
204 60 -118 27 15
-94 47 -28 23 16
-47 9 101 28 17
150 -14 18 -33 17
-84 -21 -8 -19 18
-144 -23 -165 -40 19
133 -23 -69 -25 20
2 -22 85 29 20
-175 -12 126 -6 21
82 2 -9 -1 22
86 -3 -124 -32 23
-137 22 -51 32 23
19 17 68 44 24
166 12 15 -2 25
-100 -2 -183 -70 26
-80 -11 -201 -47 26
145 -3 25 34 27
-50 4 202 64 28
-143 -5 93 15 29
124 10 -56 -17 30
10 9 -104 0 30
-128 28 141 60 31
138 46 183 52 32
157 37 118 33 33
-88 26 -109 -6 34
11 5 -234 -54 35
201 47 -119 21 36
-26 61 46 53 37
-65 38 65 44 38
152 11 4 -7 38
-75 -35 52 -12 39
-205 -43 83 -41 40
87 -17 136 13 41
44 -12 -76 -33 42
-192 -13 -168 -61 43
48 -3 -117 -18 44
151 0 -80 -10 45
-152 7 -134 -24 46
-31 7 -25 29 47
171 11 51 33 48
-80 15 105 9 49
-100 30 116 47 50
200 51 -30 31 51
46 64 12 94 52
-129 58 -13 19 53
139 62 -39 -5 54
139 21 -20 -7 54
-28 -1 -19 -20 55
177 -14 104 -21 56
211 -10 146 48 57
-147 -8 -49 -21 58
-192 -17 -262 -49 59
62 5 -228 -51 60
-125 8 76 52 61
-184 11 55 64 62
87 32 142 96 63
0 29 52 -1 64
-194 10 66 19 64
91 -2 -18 -28 65
89 4 -69 -40 66
-221 0 158 44 67
6 10 154 71 68
155 8 -9 33 69
-123 0 -268 -49 70
-65 -5 -282 -65 71
179 5 -4 21 71
-30 9 39 -11 72
-127 -3 -33 -24 73
165 13 -54 -47 74
96 36 42 0 75
-155 44 112 8 76
103 38 49 24 77
157 23 -214 41 77
-140 28 -137 14 78
-14 4 69 36 79
203 40 303 25 80
-81 25 57 -19 81
-75 18 -182 -78 81
217 19 -37 13 82
67 31 234 87 83
-130 28 243 85 84
193 28 -129 -20 85
90 0 -261 -13 85
-187 11 21 9 86
53 12 134 76 87
145 12 -140 -12 88
-131 1 -185 -59 89
-18 5 -52 -29 89
204 19 -24 -44 90
-85 20 102 53 91
-81 33 -72 36 92
182 26 -46 0 92
23 31 122 79 93
-165 17 76 30 94
91 8 31 46 94
91 26 -11 -35 95
-154 12 52 -12 96
51 8 93 37 97
168 13 162 72 97
-153 -9 51 65 98
-92 -18 44 40 98
167 -16 -186 -56 99
-58 -21 -224 -108 100
-130 -13 -38 -4 100
179 6 -17 -14 101
56 15 -97 -13 102
-161 -4 -421 -72 102
61 -3 -22 -17 103
137 63 461 148 103
-143 18 242 88 104
37 14 -211 -25 105
216 27 39 23 105
-123 31 261 30 106
-85 44 379 114 106
201 13 -357 -116 107
-57 -27 -361 -71 107
-145 28 326 172 108
165 41 185 74 108
63 2 -215 -38 109
-169 -16 -317 -180 110
85 2 68 20 110
165 17 -179 0 111
-122 17 -92 14 111
2 -1 253 54 112
202 42 405 77 112
-84 13 139 58 113
-121 -19 -359 -124 113
163 9 -25 -7 114
-62 22 321 83 114
-201 10 97 33 115
70 -27 -289 -87 115
53 1 -90 -44 116
-211 25 147 64 116
16 15 66 30 117
134 15 -206 -52 117
-174 -9 -287 -76 118
-55 9 -260 -23 118
168 -12 -196 -68 119
-65 9 176 22 119
-97 30 317 65 119
164 32 249 83 120
55 40 -20 42 120
-147 -20 -230 -97 120
125 7 -103 10 121
121 19 144 64 121
-147 14 95 28 121
28 -6 -8 -29 122
219 43 15 1 122
-116 21 16 21 122
-49 3 135 54 123
209 -2 -29 -3 123
-49 -29 -290 -91 123
-136 2 -117 -22 123
181 13 46 15 123
61 26 67 27 123
-177 -12 -53 -18 124
89 -25 -135 -26 124
104 -23 -49 -45 124
-160 -6 15 -19 124
8 19 135 48 124
176 14 -60 19 124
-105 20 -29 -14 124
-61 30 30 53 124
227 50 77 74 124
-3 42 46 50 124
-137 30 94 59 124
164 25 -10 18 124
101 44 9 37 124
-143 39 1 23 124
120 38 31 0 124
157 12 -7 1 124
-181 -7 -105 -30 124
8 -7 -39 -28 124
208 12 1 13 123
-115 10 27 -4 123
-2 -2 -14 -20 123
190 9 -24 -12 123
26 10 -74 -17 123
-210 -17 -67 -19 123
90 5 44 12 123
34 0 -13 -29 123
-187 15 30 5 122
97 22 -10 25 122
124 5 -125 -35 122
-147 23 90 81 121
-45 21 15 -13 121
207 54 178 84 121
-65 43 46 25 120
-126 13 -97 -40 120
163 5 -17 15 120
-1 -4 29 -5 119
-183 -2 23 2 119
116 10 -8 1 118
136 16 -19 7 118
-169 8 -29 1 118
45 10 -23 3 117
185 15 -7 17 117
-134 -1 -63 -20 116
-79 -1 -44 3 116
222 12 10 8 115
-17 17 -95 4 115
-110 13 -99 5 114
176 15 -43 19 113
35 19 48 8 113
-196 36 252 95 112
60 31 197 65 112
92 20 77 19 111
-218 0 11 -5 110
-20 5 -65 -26 110
165 21 -33 24 109
-117 6 -43 -1 108
-112 -2 -59 -23 108
217 32 -32 0 107
-9 28 -8 20 106
-110 1 -28 8 106
212 3 -33 -4 105
90 4 -32 -9 104
-154 3 -33 0 104
81 -3 -105 -49 103
137 2 -202 -28 102
-154 19 18 56 101
-25 16 225 82 101
187 6 146 21 100
-114 -15 -45 -19 99
-97 -11 -129 -31 98
192 2 41 31 97
-8 9 179 19 96
-175 2 89 6 96
128 1 -30 -14 95
42 -3 -61 -17 94
-181 3 -60 -25 93
33 -8 -71 -18 93
172 14 -54 -5 92
-127 2 -39 -9 91
-36 7 -33 -9 91
179 23 -13 15 90
-82 26 -7 13 89
-116 30 -3 21 89
189 32 -6 3 88
25 26 -43 0 87
-183 7 -2 13 87
120 10 24 48 86
89 12 10 36 85
-181 16 38 46 84
31 15 83 14 83
174 24 88 21 83
-111 11 14 8 82
-62 5 18 5 81
176 -8 10 -9 80
-63 -1 21 -7 79
-171 -9 -64 -20 78
127 1 -48 -20 78
82 3 -7 1 77
-140 1 -9 -9 76
153 9 -52 -3 75
170 4 -69 -4 75
-147 8 -50 -5 74
16 15 -59 10 73
196 23 -86 14 72
-83 33 -35 15 71
-59 46 40 26 70
210 52 172 88 70
8 57 161 88 69
-140 48 84 56 68
169 45 36 61 67
78 48 72 37 66
-165 23 37 9 65
58 -4 15 -13 65
98 -23 -60 -42 64
-218 -35 -92 -53 63
-55 -32 -89 -51 62
147 -17 -95 -31 62
-95 -11 -85 -25 61
-103 -1 -30 -4 60
179 14 12 18 60
-1 4 -36 -7 59
-173 -9 -114 -23 58
160 1 -62 11 57
95 -1 34 16 57
-169 2 69 17 56
51 5 -3 -7 55
153 16 -39 13 54
-125 21 62 31 54
-34 1 102 15 53
187 -1 62 0 52
-75 0 -48 -20 52
-119 2 -76 9 51
137 11 -37 11 50
-7 22 12 15 50
-223 13 1 12 49
87 24 9 26 48
106 24 -11 21 47
-137 14 -26 9 47
56 14 10 11 46
165 9 -10 5 45
-127 -8 -46 -3 45
-21 27 -52 30 44
192 15 -95 11 43
-30 18 -2 21 42
-119 9 85 31 42
123 -1 85 17 41
33 18 41 5 40
-171 11 -64 3 40
82 5 1 8 39
125 10 56 11 38
-155 17 94 20 38
4 19 23 9 37
182 15 -31 13 36
-73 23 -35 15 36
-69 14 -17 10 35
215 34 -14 24 34
31 46 -4 31 34
-122 3 -19 12 33
116 -4 -31 -5 33
135 41 20 40 32
-148 10 -10 15 31
104 36 6 21 31
146 1 -18 -4 30
-143 9 1 7 30
-16 26 16 16 29
175 -3 -20 -6 29
-82 0 -12 -7 28
-98 17 7 12 28
179 20 15 22 27
-20 -17 -27 -21 27
-153 16 -12 -3 26
99 15 -7 10 25
114 45 16 30 25
-143 20 6 18 25
46 11 -8 3 24
143 12 3 16 24
-141 -2 -22 -15 23
-56 -6 -23 -5 23
161 8 -5 10 22
-53 20 0 18 22
-142 -11 -5 5 21
120 -25 -59 -28 21
9 -5 -24 6 20
-163 16 -28 -17 20
154 77 74 82 20
115 20 30 41 19
-136 34 28 45 19
-4 -2 -27 -13 18
177 44 28 39 18
-101 17 12 21 18
-63 18 5 18 17
181 17 1 8 17
-52 -1 -16 -8 17
-140 1 -10 -1 17
153 10 6 6 16
44 10 -3 -5 16
-162 8 11 20 16
81 13 13 17 15
134 30 11 17 15
-148 9 -3 3 15
-15 1 -18 -6 15
173 20 -9 1 15
-90 16 1 14 14
-81 13 -6 8 14
168 11 -15 -1 14
-10 19 -14 5 14
-145 9 -12 -1 14
124 10 -5 5 14
65 15 1 15 13
-165 6 -22 -20 13
64 11 11 12 13
168 34 2 20 13
-119 45 9 34 13
-22 19 -16 11 13
174 3 -3 8 12
-74 14 0 5 12
-109 4 -6 -12 12
180 17 -2 20 12
0 12 -3 9 12
-158 2 -3 16 12
106 -2 -14 8 11
74 0 -25 -13 11
-151 19 15 14 11
35 4 0 -7 11
158 27 24 24 11
-119 12 1 1 10
-49 12 -1 3 10
193 32 13 14 10
-61 1 0 4 10
-135 5 -9 -9 10
160 19 1 12 10
42 23 0 8 10
-160 3 -10 3 9
117 24 12 21 9
103 16 10 8 9
-148 25 3 12 9
10 2 -16 -6 9
159 12 -2 5 9
-139 -3 -25 -7 9
-90 -3 -45 -17 9
173 12 -66 -12 9
-47 6 -128 -16 9
-126 11 -95 4 9
150 15 10 29 9
54 20 112 32 9
-162 11 109 9 9
88 15 38 4 9
123 9 17 8 9
-146 13 -12 24 9
-7 10 63 32 9
178 21 131 52 9
-89 12 32 8 9
-99 -15 -89 -45 9
181 16 -57 10 9
-16 14 -54 21 9
-148 12 14 26 9
136 11 -24 5 9
69 7 -5 32 10
-166 9 71 1 10
60 7 66 39 10
147 10 -29 -1 10
-136 5 -57 -6 11
-27 7 0 -11 11
177 23 72 16 11
-78 12 23 0 12
-84 17 -124 -34 12
176 13 -157 -23 13
18 18 -87 -20 13
-169 6 61 31 14
117 20 80 20 14
103 24 78 42 15
-155 32 -67 0 15
36 17 -76 25 16
167 34 44 35 17
-104 34 112 33 17
-14 44 143 42 18
216 28 -5 3 19
-44 20 6 19 19
-107 26 -33 10 20
152 10 -44 -2 21
30 9 -119 9 21
-160 7 -63 -9 22
75 -2 49 39 23
98 3 -56 -12 24
-152 -2 -38 -17 24
-12 -3 47 -32 25
158 25 132 52 26
-89 30 22 10 27
-51 28 -162 -17 28
162 5 -232 -34 29
-39 -1 -47 4 29
-158 -25 -50 -35 30
112 -22 57 -17 31
47 -11 131 30 32
-164 2 137 20 33
79 28 123 46 34
142 31 23 -3 35
-142 11 -7 27 36
3 30 39 33 37
174 25 -31 6 38
-109 -4 -130 -48 39
-97 -24 -279 -84 40
159 -2 -220 -58 41
27 53 -78 48 42
-138 16 -8 48 43
158 26 136 71 44
59 2 129 9 45
-172 -11 115 6 46
50 6 -29 -36 47
129 1 -19 -35 48
-151 -1 -14 -27 49
-51 7 144 54 49
175 30 101 83 50
-70 47 -21 29 51
-110 47 -113 -26 52
189 48 -56 26 53
27 53 -45 16 54
-172 16 -85 -7 55
151 7 -168 -49 56
254 -21 -95 -49 57
0 -23 -1 -16 58
145 -7 136 46 59
165 10 68 27 60
-239 -4 -38 28 61
-180 -1 -25 0 62
94 6 43 57 63
-120 10 52 32 64
-206 10 70 49 65
109 21 6 -12 65
13 22 -10 -8 66
-183 6 2 -1 67
73 17 103 55 68
114 23 108 37 69
-154 15 -23 9 70
13 4 -126 5 71
208 12 39 40 72
-113 13 37 33 73
-59 3 -161 -63 74
184 10 -129 -59 75
-41 24 73 78 75
-143 19 -58 16 76
155 32 -202 -35 77
48 16 114 64 78
-177 38 399 137 79
68 34 297 93 80
130 24 -118 -28 81
-147 10 -141 -105 82
-26 1 55 -23 83
179 17 -85 -13 83
-84 19 -331 -91 84
-83 15 -184 -58 85
186 24 132 29 86
-3 24 213 59 87
-133 17 -60 5 87
193 49 -299 1 88
101 14 -112 -25 89
-140 26 262 57 90
100 20 251 95 90
180 24 61 17 91
-105 21 -16 40 92
-5 7 -22 4 93
211 31 32 17 93
-45 43 -65 24 94
-104 15 -105 -8 95
189 30 -49 15 95
14 5 -234 -60 96
-204 -24 79 9 97
63 -38 262 33 97
74 -8 177 2 98
-202 -11 -116 -21 98
19 -21 -484 -95 99
158 8 79 77 99
-121 12 390 80 100
-48 22 296 82 101
193 -4 -108 -45 101
-65 -12 -59 0 102
-139 -15 -36 4 102
151 1 10 -16 103
33 -16 -428 -175 103
-129 -3 -80 0 104
91 40 461 222 104
150 43 103 97 105
-147 19 -185 5 105
0 -3 -194 -41 106
179 27 48 32 106
-114 21 266 37 107
-72 1 -216 -78 107
137 -31 -228 -17 108
-55 0 161 19 108
-165 -11 267 36 109
190 39 170 90 109
39 -6 -211 -51 110
-153 30 -77 -9 110
84 9 163 14 110
110 3 101 -19 111
-182 10 -66 -18 111
8 7 -132 11 112
204 40 201 113 112
-53 16 -371 -70 113
-100 -12 -456 -75 113
167 43 389 131 114
-19 48 495 163 114
-176 18 208 46 115
106 -17 -271 -70 115
29 -20 -249 -112 115
-217 4 95 -35 116
37 12 77 39 116
149 13 -248 -39 117
-179 -17 -383 -87 117
-48 29 209 106 117
154 16 185 28 118
-79 43 259 104 118
-113 7 -141 -35 119
169 -19 -268 -73 119
8 -9 21 -36 119
-163 -7 77 -16 120
146 31 -65 -27 120
114 24 -78 14 120
-131 24 71 22 120
48 -7 -69 -39 121
178 7 -47 -13 121
-113 -7 -68 -4 121
-53 -1 -45 -21 121
206 5 93 37 121
-30 19 -116 -31 122
-132 -11 -168 -38 122
191 18 114 33 122
39 18 140 68 122
-155 18 206 85 122
112 12 -75 -9 122
137 32 -118 -22 122
-166 31 22 -3 122
19 28 0 23 122
183 19 -98 -11 122
-111 12 -3 13 122
-82 -5 45 15 122
192 2 41 16 122
-35 7 7 -1 122
-135 21 -11 12 122
166 16 -32 14 122
76 21 0 20 122
-182 12 -20 3 122
73 15 -65 5 121
170 34 26 39 121
-151 19 -3 6 121
-34 -3 -91 -32 121
203 18 29 26 121
-133 2 -30 -12 121
-61 17 81 45 120
206 15 104 57 120
5 16 -29 9 120
-182 12 -6 9 120
137 7 -105 -35 119
76 12 -122 -26 119
-167 8 51 14 119
70 28 128 56 118
172 22 124 32 118
-155 1 -31 -8 117
-39 -4 -72 -17 117
179 -2 10 -24 117
-61 9 43 3 116
-135 15 27 12 116
218 21 -15 16 115
22 13 -62 -5 115
-173 11 3 12 114
119 3 -41 -12 114
92 7 -46 -16 113
-191 26 -8 12 113
2 34 28 54 112
149 43 61 75 112
-135 33 62 58 111
-81 14 -84 5 110
201 33 -43 9 110
-59 22 -79 -21 109
-167 -4 85 41 108
157 15 213 66 108
40 0 124 33 107
-179 11 59 17 106
97 9 -28 -9 106
134 -12 -91 -25 105
-193 -8 -74 -12 104
18 -16 -50 -21 104
230 -4 -24 -11 103
-105 -12 -32 -35 102
-71 -8 -51 -21 102
184 -7 -114 -57 101
-45 -5 -101 -8 100
-163 5 -7 24 100
174 13 -81 17 99
60 29 43 38 98
-168 13 162 65 97
93 24 153 26 97
156 35 149 82 96
-127 44 11 36 95
0 18 27 29 94
180 6 31 15 94
-123 -20 -57 -47 93
-152 -15 -87 -41 92
153 6 -55 -9 92
-27 15 -21 -7 91
-193 5 -45 -15 90
84 7 -52 -9 90
59 4 -85 -26 89
-179 5 -27 8 89
33 0 16 16 88
158 4 -24 -19 87
-151 -5 -13 -17 86
-42 12 -46 1 86
209 29 45 64 85
-34 31 113 63 84
-95 20 121 7 84
192 20 110 23 83
53 22 19 27 82
-133 21 -37 10 81
188 42 -7 37 81
189 48 50 43 80
-115 31 36 15 79
48 12 -15 -4 79
160 9 -34 -3 78
-180 -7 -45 -13 77
-62 0 -47 -19 77
177 -3 -41 -8 76
-33 14 -31 23 75
-140 12 -51 22 75
161 12 -66 -27 74
45 9 -16 -3 73
-173 5 2 -13 73
97 6 53 40 72
123 15 82 31 71
-151 8 74 31 70
1 3 13 11 70
178 4 -16 -7 69
-112 -5 -57 -35 68
-97 10 -5 -6 68
181 22 6 22 67
-13 11 -29 4 66
-164 7 -29 -2 66
141 6 -45 -6 65
59 6 -51 -2 65
-181 5 -6 5 64
58 5 -68 2 63
148 14 -109 -12 63
-163 8 -121 4 62
-24 4 45 1 61
176 -12 132 21 61
-115 -15 98 3 60
-124 -19 2 -26 59
155 -4 -25 -10 59
-14 12 -37 -3 58
-161 -2 -30 2 57
147 27 0 30 57
110 30 62 26 56
-155 28 45 12 56
57 20 -1 0 55
172 26 -52 12 54
-129 22 -22 18 54
-13 31 -17 25 53
196 21 -48 4 52
-43 31 -40 13 52
-118 6 -27 0 51
146 -10 8 13 50
14 0 72 37 50
-189 -11 61 17 49
143 13 50 14 48
145 13 -9 12 48
-158 28 -44 23 47
-5 6 -54 7 46
96 2 -9 -5 46
-198 -27 -20 -25 45
-143 -10 -27 -17 44
166 23 22 15 44
-22 19 34 26 43
-111 21 51 19 42
181 9 11 11 42
82 0 -28 -10 41
-136 -2 -28 -8 41
100 -9 -39 -6 40
159 21 -13 25 39
-147 11 -26 16 39
-15 0 -63 -18 38
163 -3 -56 -1 38
-76 26 -11 23 37
-63 22 33 29 36
166 -7 15 5 36
16 19 28 10 35
-145 7 -4 10 35
135 19 -13 6 34
103 19 -49 18 33
-161 -6 -31 17 33
35 -14 -20 -2 32
139 2 35 9 32
-126 13 76 22 31
-4 33 55 32 30
197 40 45 38 30
-45 37 20 29 29
-104 1 -31 -7 29
139 -10 -38 -16 28
-18 -10 -32 -7 28
-176 -14 -29 -9 27
121 17 -7 17 27
76 8 -19 0 26
-183 -10 -35 -15 25
31 -2 -23 -12 25
124 -9 -19 0 25
-107 20 5 19 24
-46 13 -3 10 24
161 -3 -11 2 23
-49 14 2 12 23
-142 -1 -17 -7 22
149 8 -1 -1 22
35 8 14 4 21
-185 -23 -26 -10 21
86 1 -11 6 21
103 3 -25 1 20
-179 -6 -37 -33 20
17 25 29 58 19
183 31 10 62 19
-85 35 11 41 19
-41 45 -7 20 18
192 35 -4 9 18
-17 24 19 35 18
-111 26 13 25 17
178 56 41 63 17
70 35 31 37 17
-174 -14 -21 -18 17
38 -26 -50 -42 16
88 -1 -13 -10 16
-147 15 11 12 16
-1 10 -9 -6 16
181 30 10 11 15
-95 28 8 5 15
-92 11 7 0 15
181 9 -3 -41 15
-36 -8 49 59 15
-127 25 -49 -13 15
141 26 8 48 14
76 22 -20 7 14
-143 18 4 13 14
51 9 -4 9 14
161 17 7 24 14
-122 18 6 11 13
-32 5 -1 3 13
171 19 -2 6 13
-57 21 3 8 13
-106 13 -5 -8 13
144 -1 -24 -17 12
-2 2 -18 -17 12
-162 -19 -7 -15 12
123 16 -19 4 12
87 21 -13 23 12
-162 20 -8 6 11
20 -11 -46 -9 11
160 32 -29 -5 11
-115 20 -16 14 11
-51 11 -9 -2 11
194 30 30 43 10
-52 14 1 12 10
-117 14 1 17 10
171 27 8 12 10
39 20 12 11 9
-150 11 10 8 9
98 25 -16 -4 9
88 -4 -25 -12 9
-168 -4 -6 -7 8
0 1 -6 -14 8
155 15 3 0 8
-120 1 -19 4 8
-63 23 -11 12 7
167 19 0 19 7
-32 9 0 13 7
-108 48 20 6 7
140 5 -5 -9 7
52 17 4 17 6
-164 -1 -14 1 6
82 9 -9 17 6
108 4 -22 6 6
-125 31 6 25 6
18 26 11 18 6
185 25 8 7 5
-76 25 2 14 5
-83 14 -23 -8 5
156 0 -54 -15 5
-23 5 -62 0 5
-139 18 -19 11 5
132 15 7 17 5
87 18 1 19 5
-155 16 5 15 5
42 -9 47 7 5
168 30 94 26 5
-135 13 45 -1 5
-24 9 -35 -11 5
183 19 -33 15 5
-65 17 -7 14 5
-104 14 47 20 5
169 16 26 14 5
16 23 -33 -4 5
-160 4 -51 24 5
118 8 21 15 5
99 5 68 14 5
-152 8 -60 -24 5
39 7 -183 -18 6
153 9 -80 -12 6
-131 5 61 52 6
-51 16 132 48 6
164 13 43 60 7
-32 18 48 35 7
-113 11 113 29 7
159 22 153 24 8
47 18 97 21 8
-155 8 -2 -22 9
100 16 -74 -5 9
80 6 -172 -32 10
-154 5 -224 -39 10
53 12 -99 0 11
184 29 32 32 12
-62 25 -6 12 12
-67 15 -71 -17 13
192 31 -45 16 14
-12 43 153 60 14
-115 34 120 53 15
196 72 21 48 16
57 20 -101 4 16
-151 19 53 40 17
78 4 114 13 18
111 0 32 -16 18
-154 9 -59 -2 19
-20 -7 -80 -11 20
143 -2 -17 22 20
-106 5 29 24 21
-111 -8 -69 -14 22
145 -7 -42 1 22
-17 -6 4 -4 23
-176 -23 -23 -34 24
89 -16 -25 -21 25
82 7 -16 -27 25
-155 11 115 29 26
73 30 145 58 27
171 24 19 19 28
-117 11 -138 -25 29
-20 25 -166 -15 29
225 60 -70 42 30
-34 38 -22 6 31
-101 23 6 48 32
151 5 24 0 33
-9 -15 -51 -26 33
-212 -35 -133 -80 34
55 -37 29 -41 35
51 -42 128 11 35
-177 -15 44 -35 36
24 -2 19 3 37
164 30 -8 39 38
-100 27 94 68 38
-41 11 -3 28 39
181 15 -228 -19 40
-98 -18 -348 -88 41
-90 -4 -98 -25 41
188 29 264 47 42
87 51 244 78 43
-71 71 9 49 44
159 34 -33 34 45
210 18 196 42 45
-70 16 142 13 46
32 -7 -32 -20 47
120 21 -136 6 48
-168 28 -80 8 49
-137 9 -209 -45 49
139 21 -247 -25 50
-74 17 11 5 51
-213 12 367 111 52
88 23 133 18 53
34 16 -263 -89 54
-180 18 -176 -46 54
41 25 45 24 55
79 31 112 36 56
-184 9 -43 22 57
0 -5 -75 6 58
183 0 119 18 58
-55 1 184 58 59
-64 -7 72 19 60
186 4 -75 -18 61
0 -2 41 48 62
-155 -3 54 45 63
117 5 -75 -8 64
110 28 -235 -58 64
-167 -4 -31 -7 65
54 7 176 62 66
165 18 75 45 67
-157 13 -147 -34 68
-19 19 -130 -21 68
192 36 209 81 69
-50 25 139 40 70
-119 9 -113 -33 71
161 14 -156 -11 72
14 16 -127 -9 72
-174 8 157 57 73
113 10 70 16 74
109 20 8 33 75
-166 9 56 41 75
75 15 25 -20 76
199 21 62 -19 77
-111 13 91 14 78
-39 19 -88 27 78
189 29 -229 -9 79
-41 33 15 2 80
-116 21 68 -13 81
179 28 115 31 81
51 43 54 59 82
-188 21 -195 -27 83
95 15 -1 49 84
160 25 177 28 84
-145 16 165 64 85
42 20 -252 -55 86
189 4 -364 -77 86
-121 16 -71 -37 87
-77 26 341 101 88
207 36 198 82 89
-24 13 -267 -51 89
-163 -5 -71 -2 90
139 12 200 33 91
57 7 60 11 91
-209 -16 -252 -80 92
67 -9 -175 -43 93
125 11 25 2 93
-212 -1 183 57 94
-32 6 190 79 94
189 17 174 95 95
-67 39 -41 46 96
-97 19 -197 -42 97
217 20 6 -31 97
25 28 122 63 98
-143 9 14 -21 98
157 -6 -410 -87 99
68 -24 -285 -48 100
-197 6 183 77 100
31 18 250 85 101
169 15 10 19 102
-175 -34 -233 -48 102
-87 -28 116 -26 103
163 5 320 98 103
-67 12 160 -2 104
-111 -9 -428 -97 105
161 -2 -238 -17 105
0 13 268 55 106
-175 26 311 116 106
129 26 13 -1 107
113 1 -370 -90 108
-180 5 -98 -16 108
27 15 81 37 109
191 28 -65 -4 109
-129 -12 -243 -28 110
-61 13 38 -18 110
208 42 170 105 111
-59 20 -55 -53 111
-132 -17 -3 -56 112
185 4 63 40 112
96 72 395 150 113
-113 63 149 113 113
102 -3 -339 -103 114
118 -26 -219 -70 114
-193 -13 54 -5 115
-1 16 149 85 115
202 25 63 17 116
-105 14 -50 -3 116
-87 2 -71 -3 117
193 12 -71 -7 117
-17 6 -77 -13 118
-167 -9 -65 -14 118
156 21 -30 21 118
42 1 -72 -32 119
-154 32 -139 1 119
77 12 -173 21 119
151 10 53 71 120
-166 6 254 63 120
-27 8 174 19 120
203 21 81 -14 120
-100 34 -38 -16 120
-82 18 47 35 121
177 4 10 -7 121
4 25 19 63 121
-179 1 -54 -5 121
125 7 -36 4 121
72 -9 -79 -24 121
-221 -28 -108 -31 121
35 0 -59 -7 121
171 21 69 28 121
-147 19 0 -3 121
-27 11 -97 -33 121
194 17 -49 33 121
-57 26 82 87 121
-125 20 132 65 121
158 16 80 37 121
53 19 -15 -9 120
-144 24 24 17 120
141 18 -19 26 120
89 4 -158 -14 120
-204 -2 -33 -19 120
55 16 129 36 119
197 31 127 27 119
-92 17 -18 0 119
-52 4 -92 -45 119
180 24 16 14 118
-12 20 29 26 118
-119 11 -28 8 118
161 7 -69 -3 117
43 23 24 20 117
-205 9 -7 25 117
76 0 -43 4 116
117 -1 -49 -9 116
-195 3 2 -13 115
-53 13 72 32 115
180 19 -9 15 114
-122 12 -101 31 114
-83 22 13 31 113
185 18 22 2 113
21 18 127 11 112
-154 12 84 29 112
181 27 15 30 111
144 26 -21 21 110
-155 14 -64 -23 110
118 9 -6 24 109
169 5 -18 10 109
-176 -18 -107 -50 108
-53 -19 -35 -21 107
166 -3 9 6 107
-130 2 22 15 106
-147 1 -34 8 105
184 -5 -177 -63 105
2 6 -110 -43 104
-170 1 87 53 103
164 24 244 84 102
129 32 203 71 102
-123 41 95 47 101
80 25 -55 -4 100
183 13 -61 14 99
-203 -5 -21 12 99
-56 -11 -67 -37 98
190 5 -28 -3 97
-75 17 -31 -11 97
-132 15 -32 -7 96
168 15 -17 5 95
17 10 -30 -10 95
-183 -6 -89 -47 94
114 8 -92 -18 93
94 9 25 40 92
-187 24 129 52 92
34 19 81 24 91
188 16 -115 12 90
-136 9 -74 4 89
-94 0 27 -9 89
170 8 252 58 88
-59 3 198 43 87
-159 -11 46 16 86
138 -5 -47 -22 86
44 -4 -67 -33 85
-160 9 -71 -14 84
104 1 -80 -18 83
150 9 -58 -17 83
-154 9 -40 -3 82
-24 9 -33 1 81
192 25 -10 14 81
-89 19 -24 4 80
-80 13 -44 0 80
182 20 -52 -9 79
-15 23 -29 8 78
-149 20 43 21 78
147 25 36 57 77
93 31 44 34 76
-155 20 -15 20 75
79 25 19 12 75
172 37 97 46 74
-148 14 112 30 73
-1 13 58 9 73
203 18 12 5 72
-56 16 -32 -5 71
-70 32 -19 7 70
205 28 -28 15 70
26 32 -24 1 69
-168 3 -35 5 68
128 12 -33 5 67
73 8 -53 -5 67
-187 1 -43 -11 66
11 -11 -52 -26 65
124 -25 -67 -22 64
-164 -12 -64 -9 64
-71 -25 -88 -29 63
199 18 -61 -5 62
-50 10 -19 -19 61
-115 -5 11 -27 60
185 18 152 22 59
26 23 191 64 58
-170 13 105 48 57
93 2 17 25 57
101 -4 -68 -24 56
-170 -4 -58 -11 55
19 12 -41 4 54
168 11 -55 7 53
-129 1 -66 -10 52
-59 1 -32 2 51
191 3 -42 -3 51
-27 11 -62 0 50
-139 15 -65 5 49
144 14 -64 19 48
57 13 -2 20 47
-156 14 22 17 46
60 -1 -7 -5 46
131 19 17 22 45
-175 2 59 0 44
12 28 129 17 43
190 19 69 21 42
-68 21 12 31 41
-57 21 -28 22 41
204 9 -1 21 40
-2 -4 0 -1 39
-111 13 -6 1 38
168 15 -19 14 37
134 25 -15 24 37
-102 23 -17 21 36
76 29 -7 15 35
105 16 -10 10 34
-213 12 -5 12 34
-145 0 -11 7 33
83 7 -15 7 32
-122 15 -8 7 32
-181 -14 -33 -16 31
181 45 17 33 30
27 32 14 26 30
-128 34 13 29 29
113 -9 -29 -4 28
92 -5 -16 -6 28
-131 30 17 18 27
53 16 -17 -24 27
193 21 17 27 26
-125 -15 -49 -54 25
-60 -3 9 17 25
172 -1 -29 -18 24
-45 5 -13 15 23
-86 37 20 52 23
172 39 28 73 22
56 23 -5 22 22
-152 3 -17 20 21
104 24 13 26 20
110 15 1 12 20
-119 25 19 34 19
7 -2 -18 -13 19
124 -19 -27 -19 18
-135 -29 -30 -26 18
-93 -9 -16 -8 17
150 5 -3 0 17
-39 -1 -7 -5 16
-145 -3 -13 -17 16
160 22 1 -5 15
103 54 68 64 15
-145 21 -13 -20 15
65 13 30 43 14
128 18 -17 -20 14
-199 -43 -44 -20 14
-39 -17 -69 -32 13
156 3 -28 16 13
-95 17 -29 -6 13
-79 23 6 7 12
178 26 15 30 12
5 28 11 27 12
-120 36 18 23 11
132 27 10 21 11
119 45 27 36 11
-153 17 11 19 10
57 23 7 13 10
164 31 12 13 10
-95 42 72 84 9
-49 14 -19 -1 9
187 35 19 33 9
-48 26 -18 -13 9
-105 18 -1 15 8
135 5 -3 1 8
16 -16 -34 -28 8
-159 -10 -24 -22 8
92 9 11 0 7
109 21 8 19 7
-162 -10 -40 -39 7
8 -4 2 9 7
161 25 27 16 7
-125 4 -17 -7 6
-46 14 17 35 6
180 24 11 41 6
-51 6 -37 -9 6
-121 13 -16 9 6
160 18 -3 13 6
36 9 -3 9 5
-153 12 6 9 5
91 -4 -3 9 5
144 21 4 7 5
-150 15 2 4 5
32 23 11 15 5
178 11 -1 4 5
-89 20 -9 32 4
-60 22 -17 11 4
190 27 -25 24 4
-19 34 -3 19 4
-129 21 19 9 4
132 -1 56 28 4
50 9 25 -3 4
-170 12 -16 -4 4
61 5 -75 -2 4
111 -7 -82 -17 4
-172 -9 -20 -7 4
-26 1 21 6 4
165 10 13 -2 4
-90 8 -58 -13 4
-115 -11 -82 -5 4
175 15 -18 23 4
3 19 82 27 4
-161 1 15 9 4
134 5 -59 -7 4
85 21 -81 10 4
-157 14 41 30 4
44 20 200 44 4
145 13 221 24 4
-100 21 103 -12 4
-26 14 -24 -19 4
192 14 -85 -6 5
-65 4 -137 -8 5
-125 1 -70 3 5
160 7 -63 -17 5
20 10 5 31 6
-154 9 -27 6 6
87 7 7 45 6
101 13 28 15 7
-144 15 112 28 7
28 12 25 2 7
175 19 -77 22 8
-106 8 -121 1 8
-62 11 -36 20 9
176 15 -9 -2 9
-32 24 -112 -24 10
-116 18 -99 0 10
144 9 71 -8 11
43 48 323 67 11
-142 26 230 26 12
125 47 -6 29 13
152 51 -154 14 13
-133 31 -116 6 14
40 32 -15 14 15
174 20 60 49 15
-101 9 17 10 16
-82 3 -72 -15 17
132 -5 -117 3 17
-32 15 -77 -6 18
-138 4 141 62 19
141 12 136 1 19
89 39 92 25 20
-153 16 -90 -13 21
53 3 -80 -7 22
132 1 117 46 22
-173 -19 28 -14 23
-59 -24 -113 -47 24
152 -15 -301 -81 25
-99 1 -103 1 26
-115 4 106 37 27
153 11 222 34 28
-7 1 102 -11 29
-142 8 -100 -47 30
145 33 -249 -17 31
113 26 -166 -19 32
-142 27 40 36 33
42 5 117 15 34
138 15 147 47 35
-121 0 -78 -19 36
-8 22 -95 30 36
206 31 -70 23 37
-66 16 85 19 38
-133 -8 117 9 39
138 1 53 7 40
23 13 -85 -23 41
-155 0 -93 -22 42
95 6 61 33 43
87 6 8 -5 44
-200 -9 -31 5 45
26 8 -99 -16 46
203 39 71 50 47
-45 63 98 66 48
67 31 -92 -34 49
275 25 -192 -42 50
-16 33 -11 7 51
-128 34 70 45 52
87 18 63 37 53
-20 -11 -116 -50 54
-221 -18 -35 34 54
14 -8 74 40 55
68 -5 91 61 56
-199 -22 -93 -75 57
-33 -18 -54 -32 58
141 6 73 25 59
-147 10 320 115 60
-96 19 249 67 61
183 22 -51 -2 62
-51 16 -217 -32 62
-143 16 -96 -3 63
174 33 16 32 64
95 31 -32 37 65
-150 12 -173 -25 66
60 -15 -159 -44 67
112 -2 -125 -7 68
-163 3 52 -13 69
-24 10 148 63 69
166 22 199 64 70
-89 27 80 59 71
-96 16 -47 -7 72
178 17 16 14 73
5 15 145 37 73
-163 -8 -94 -56 74
126 7 -118 -11 75
81 7 111 30 76
-176 20 225 99 77
50 26 -26 -23 77
166 28 -170 -62 78
-94 31 -2 19 79
-32 32 54 55 80
203 36 -152 -39 81
-49 20 -236 -51 81
-127 18 66 51 82
179 27 4 68 83
61 31 -23 -11 84
-135 12 80 3 84
130 28 288 43 85
122 35 175 107 86
-165 19 -233 7 86
6 -1 -272 -54 87
202 22 190 26 88
-98 26 156 -11 89
-41 7 9 8 89
200 12 -75 25 90
-27 3 66 38 91
-149 4 34 -14 91
157 1 -124 -45 92
53 -7 -288 -75 93
-196 20 55 121 93
85 13 184 49 94
123 22 133 50 95
-164 5 -54 -42 95
-4 -2 4 38 96
167 11 104 19 97
-127 4 126 28 97
-117 -13 -128 -56 98
166 8 -200 -24 99
-7 7 -14 15 99
-132 21 -4 -8 100
150 1 -296 -84 101
78 15 -176 5 101
-144 21 361 140 102
89 27 298 33 102
181 18 -106 8 103
-156 -10 -173 -81 104
-43 2 186 74 104
175 5 -22 -30 105
-105 -14 -131 -70 105
-123 4 -96 31 106
190 13 252 83 106
17 30 223 88 107
-136 20 -65 -6 107
141 12 -173 -48 108
74 -1 -9 -28 108
-167 -7 -18 -9 109
33 -18 -136 -42 109
137 -4 -60 43 110
-100 3 7 43 110
-33 -13 -125 -60 111
199 10 -148 -16 111
-48 8 -113 -14 112
-146 -8 115 82 112
179 65 413 136 112
29 27 59 5 113
-195 -4 -158 -25 113
82 3 20 17 114
98 24 162 32 114
-177 37 225 37 114
14 20 -149 -40 115
107 -24 -307 -69 115
-180 8 57 40 115
-46 25 133 71 116
194 15 -255 -76 116
-67 -18 -373 -101 117
-149 10 166 111 117
159 43 299 120 117
57 44 138 96 118
-179 -35 -404 -129 118
4 -68 -317 -196 118
93 -3 339 44 118
-159 21 381 56 119
48 35 39 34 119
213 24 -342 -63 119
-57 30 -46 40 120
-95 19 156 18 120
180 13 233 63 120
-11 3 -92 -3 120
-144 -15 -312 -88 121
162 9 -70 23 121
111 36 95 31 121
-147 15 65 28 121
72 8 77 23 122
160 7 -39 -17 122
-128 -11 -157 -32 122
-30 -6 -28 1 122
199 10 -3 7 122
-71 13 -78 -7 122
-95 13 -53 9 122
214 32 22 39 122
0 -4 72 -2 123
-127 10 88 14 123
129 7 -117 -18 123
106 23 -66 12 123
-154 30 83 42 123
34 25 109 58 123
159 19 66 49 123
-138 14 -35 5 122
-41 4 -42 -1 122
201 25 -5 23 122
-51 25 -60 9 122
-128 9 -86 -25 122
189 15 23 8 122
28 21 73 22 122
-183 -1 5 -7 121
104 -5 -35 -21 121
121 16 -31 31 121
-160 15 65 40 121
65 26 36 31 120
193 19 -67 -19 120
-180 -10 -53 -8 120
-72 -19 -127 -47 119
176 0 12 3 119
-41 5 77 2 118
-145 6 68 19 118
155 9 42 22 117
70 8 -137 -59 117
-126 34 39 61 116
113 36 69 67 116
182 60 89 76 115
-151 21 18 31 115
-14 1 -65 -36 114
202 27 -40 18 114
-161 3 -60 -16 113
-141 -7 -27 -27 112
147 1 -35 -27 112
-54 44 61 45 111
-201 30 57 47 111
126 24 -113 -29 110
57 11 -41 -4 109
-236 6 91 67 109
69 14 104 76 108
162 11 111 52 107
-129 4 11 -14 107
-10 -4 -6 -17 106
213 -7 -43 -8 105
-78 -8 -92 -27 105
-111 1 -40 -23 104
208 -1 -6 -8 103
32 6 -14 -9 103
-159 -5 -74 -38 102
101 -10 -90 -26 101
103 -6 -27 -13 101
-185 15 45 64 100
68 37 77 60 99
196 35 36 39 98
-143 7 -79 -19 98
-76 -4 -50 -17 97
182 2 59 22 96
-44 35 146 77 96
-123 34 120 64 95
177 27 40 39 94
35 16 -39 -10 93
-179 11 -67 -25 93
100 11 -54 -19 92
97 4 -31 -4 91
-205 -15 -34 -24 91
-32 -22 -55 -42 90
143 -3 -58 -22 89
-138 12 -43 -9 88
-70 32 35 46 88
187 28 45 41 87
-49 1 -66 -3 86
-139 -3 -115 -42 86
176 4 -49 -6 85
87 19 58 26 84
-165 10 136 68 83
116 17 146 52 83
152 22 78 23 82
-121 25 7 7 81
42 21 -37 -4 81
196 27 -21 7 80
-73 24 1 8 79
-49 25 -9 6 79
210 31 -24 12 78
36 33 -16 20 78
-135 22 -11 17 77
135 11 -22 12 76
66 7 -19 1 76
-200 0 -54 -11 75
49 6 -49 9 74
146 9 -56 8 74
-162 -17 -77 -56 73
-63 -28 -16 -27 72
151 -34 102 17 72
-93 -20 124 35 71
-128 -13 119 26 70
177 3 17 -13 69
26 13 -28 -15 69
-163 7 -35 -20 68
118 16 -41 0 67
105 19 -16 19 67
-168 21 -22 22 66
22 14 -40 1 65
169 21 -50 3 65
-136 16 -21 28 64
-54 28 -7 17 64
187 12 -14 15 63
-45 6 -106 -14 62
-124 8 -110 -9 62
157 9 -19 21 61
32 5 105 18 60
-171 14 143 44 60
78 6 104 30 59
105 7 -16 4 58
-159 5 -60 -2 58
1 5 -41 -4 57
184 17 27 11 56
-89 0 16 -15 56
-35 4 -1 -4 55
218 13 -43 3 54
-8 20 -12 23 53
-148 8 2 15 53
116 10 -98 -6 52
37 17 -118 13 51
-166 17 -3 31 51
79 14 80 28 50
151 23 139 32 49
-214 3 33 -1 49
-69 1 -36 -3 48
139 18 24 24 47
-86 20 8 11 46
-53 14 -24 2 46
194 16 4 11 45
-23 13 -32 5 44
-200 32 -4 5 44
88 32 -38 12 43
69 13 -8 16 43
-168 3 15 7 42
62 -5 48 13 41
181 5 62 7 41
-90 2 15 7 40
10 24 -7 17 40
212 19 -24 16 39
-38 10 -25 2 39
-113 -2 -39 -12 38
166 7 -28 -8 38
48 24 4 20 37
-132 15 6 9 37
122 16 -8 7 36
104 7 -24 -5 36
-150 24 -11 9 35
30 19 15 12 35
184 23 21 24 34
-91 18 11 14 34
-72 -8 -16 -7 33
165 -2 -22 -6 33
-35 24 -6 5 33
-133 8 0 6 32
156 10 13 13 32
40 14 5 6 31
-174 5 -7 -1 31
122 51 32 40 30
141 0 2 13 30
-122 41 26 26 29
9 16 5 16 29
160 9 -9 7 29
-117 4 -9 1 28
-93 -2 -8 2 28
189 30 17 30 27
1 37 15 32 27
-122 19 -12 12 26
121 3 -24 -15 26
33 -13 -22 -17 25
-159 5 0 3 25
52 -7 -10 -1 24
123 5 -23 -5 24
-135 20 9 18 23
-26 10 -16 -5 23
182 24 -5 10 22
-79 8 -2 17 22
-118 -4 -31 -21 22
149 -7 -25 -25 21
20 25 39 53 21
-133 20 -11 20 20
108 7 13 43 20
78 -1 -37 -21 20
-146 5 -7 0 19
51 18 5 26 19
150 9 -4 27 18
-121 11 -9 2 18
-50 -1 -8 1 18
164 2 -1 12 17
-71 7 -12 0 17
-130 -1 -9 -3 17
177 35 19 29 17
39 24 13 21 16
-164 2 -10 -2 16
101 14 5 15 16
99 13 -5 4 16
-161 11 -1 1 15
21 5 -12 0 15
144 9 -1 -7 15
-79 48 13 22 15
-50 20 6 16 15
194 33 16 28 14
-38 6 -6 12 14
-130 9 -9 0 14
138 4 9 4 14
43 12 -19 -55 14
-161 6 88 83 14
70 14 -28 13 14
131 28 10 41 14
-151 -3 -40 -41 14
-2 21 -15 1 14
169 22 2 47 13
-81 17 -42 11 13
-75 15 -19 -8 13
172 21 34 30 13
-3 24 18 29 13
-148 0 -16 -15 13
116 -2 13 1 13
101 49 19 27 13
-159 10 2 12 13
79 27 13 16 13
156 47 28 29 12
-107 39 17 23 12
-3 30 19 25 12
192 35 17 25 12
-39 40 32 31 11
-96 15 4 3 11
142 -5 -16 -11 11
2 0 -14 -3 11
-180 -19 -18 -21 10
104 1 -18 2 10
77 -5 -20 -3 10
-179 -15 -13 -16 10
0 -20 -39 -36 9
123 -15 -33 -39 9
-133 -6 15 31 9
-64 -3 -29 -9 9
153 -6 -29 -4 9
-40 19 -21 4 9
-134 -5 -13 -1 9
170 32 16 31 8
37 15 -5 13 8
-155 11 -5 6 8
112 17 5 12 8
117 21 8 17 8
-140 25 20 31 8
27 36 20 25 8
167 13 -1 11 8
-92 17 -12 15 8
-66 15 -8 17 8
184 17 4 23 8
-18 12 12 11 8
-138 9 4 -1 8
141 16 9 14 8
66 21 7 7 8
-170 -3 -36 -13 8
73 7 -101 -14 8
130 24 -124 8 8
-161 0 -107 -5 8
-3 15 63 27 8
177 16 95 17 8
-78 25 112 20 8
-82 30 66 4 8
170 16 85 32 8
-9 17 76 35 8
-145 9 25 -21 8
135 11 -41 -45 8
79 17 -37 -21 8
-160 12 -46 -32 8
49 10 22 54 8
146 16 33 47 8
-143 10 72 80 8
-36 13 -27 -4 8
175 23 29 47 8
-65 22 -11 33 9
-107 12 33 68 9
171 14 -32 31 9
23 15 -80 -15 9
-146 16 -131 -24 10
121 11 -145 -15 10
102 13 -2 1 11
-165 4 120 12 11
29 2 103 -9 12
159 6 73 -9 12
-117 8 -32 -10 13
-48 11 36 2 13
201 27 59 20 14
-28 31 -28 -9 15
-73 55 -127 7 15
176 31 -240 -22 16
58 30 -93 37 17
-148 26 43 10 17
76 32 114 47 18
105 12 88 9 19
-151 13 141 31 19
-23 -11 129 33 20
171 17 23 31 20
-106 -4 -66 -7 21
-86 6 -57 -21 22
178 25 161 49 22
-37 11 90 -4 23
-134 0 -83 -45 24
119 -22 -203 -77 25
25 -23 -196 -63 25
-191 -8 -81 -1 26
48 3 -113 7 27
115 0 -91 -2 28
-140 2 -69 -12 28
-15 10 75 43 29
161 27 173 63 30
-36 45 134 57 30
-49 37 68 33 31
206 41 -64 8 32
43 38 2 41 33
-137 14 -32 24 33
112 -5 -100 -25 34
57 -14 -50 -7 35
-175 -8 54 0 36
16 -8 147 4 37
136 7 25 -11 37
-102 9 -167 -67 38
-11 19 -90 30 39
209 29 6 25 40
-74 6 -19 -10 41
-120 6 8 -13 41
155 13 -78 12 42
22 11 -109 -28 43
-162 5 -3 -19 44
72 3 312 60 45
88 31 321 89 46
-172 25 61 19 46
26 19 -231 -46 47
193 37 -177 -26 48
-91 15 -37 14 49
-43 11 -119 -58 50
193 23 -102 14 51
-17 22 -24 -24 52
-49 23 109 41 53
424 38 -34 -17 54
95 39 -85 -4 54
-135 19 14 -19 55
-18 -2 187 64 56
-11 -8 190 76 57
-240 -7 85 58 58
-27 1 -76 -11 59
103 1 -123 -2 60
-175 -5 -131 -23 61
-134 -6 -235 -41 61
135 10 -79 22 62
-23 39 137 46 63
-139 17 164 66 64
160 25 27 8 65
59 16 -72 -27 66
-177 4 -151 -92 67
50 14 134 76 67
147 15 229 103 68
-135 12 149 14 69
-5 4 91 22 70
196 20 -123 -40 71
-84 14 -273 -43 72
-103 -2 -63 -18 73
172 6 87 36 74
-4 12 1 35 74
-155 -6 -111 -36 75
121 20 -83 -64 76
64 28 32 46 77
-176 34 9 80 78
41 48 -38 59 79
176 31 0 -14 79
-139 16 57 -30 80
-56 4 5 -61 81
179 12 -119 -35 82
-83 10 -9 -15 83
-123 13 149 44 83
208 34 23 32 84
53 28 -153 26 85
-127 21 -4 54 86
160 17 221 52 86
131 19 297 42 87
-150 13 -102 -39 88
42 -3 -333 -117 89
154 12 -9 6 89
-136 9 140 15 90
-51 12 -128 8 91
195 13 -281 -35 92
0 24 69 83 92
-100 42 285 96 93
203 44 24 78 94
64 22 -360 -65 94
-168 27 16 26 95
88 28 440 137 96
121 22 225 65 96
-196 -17 -225 -63 97
-11 -33 -120 -18 98
146 -5 -22 -85 98
-131 -4 -66 -20 99
-96 -23 -39 16 100
182 1 -47 -43 100
-17 15 21 20 101
-138 6 -42 -45 102
175 27 -33 18 102
83 24 193 58 103
-199 9 -72 -16 103
71 -7 -251 -80 104
119 -15 -53 -1 105
-152 0 12 39 105
-16 -1 -49 -37 106
179 0 -44 3 106
-92 17 131 20 107
-101 22 204 42 107
213 27 18 18 108
-5 11 -75 -45 108
-133 3 47 16 109
119 3 -18 14 110
108 38 86 25 110
-150 14 9 37 111
53 -7 -70 -1 111
153 12 -242 -55 112
-149 -2 -177 -6 112
-22 19 40 104 113
193 23 72 -19 113
-93 -3 -87 -91 114
-164 -12 -111 -80 114
148 3 68 37 114
-7 31 233 33 115
-185 41 298 174 115
74 0 50 46 116
71 -1 -52 42 116
-227 -8 -239 -69 117
6 7 -24 -24 117
142 5 -91 -35 117
-151 7 -29 -19 118
-98 -18 -129 -75 118
187 17 62 37 119
-44 15 -94 -36 119
-127 20 79 86 119
200 49 40 -5 120
68 36 46 70 120
-156 33 157 62 120
92 -6 -70 -23 120
150 3 -47 -46 121
-155 3 -69 -15 121
16 -4 -7 -29 121
225 35 116 95 121
-85 14 12 -5 122
-83 5 -89 -55 122
215 25 -131 -48 122
-27 16 8 40 122
-141 4 -27 1 122
176 17 55 14 123
97 8 27 -13 123
-171 8 74 13 123
84 17 -11 14 123
147 12 -74 -17 123
-155 1 -85 -16 123
-51 2 -10 34 123
231 40 -13 11 123
-75 3 -87 -7 123
-172 -22 -136 -52 123
180 47 163 116 123
35 12 224 79 123
-151 19 105 57 123
179 32 -86 -19 123
119 18 -51 -2 123
-206 25 43 23 123
24 1 27 7 123
231 -2 -41 -17 123
-145 13 -10 4 122
-73 18 -1 4 122
174 24 -28 8 122
-42 20 -31 8 122
-104 28 11 33 122
232 19 4 22 122
59 12 -26 16 121
-203 6 -43 3 121
106 15 -44 14 121
123 13 -36 4 121
-168 11 61 57 120
1 -2 -20 -8 120
181 11 55 13 120
-148 -22 43 -4 119
-89 4 106 2 119
199 5 37 5 118
-40 20 40 15 118
-135 7 -7 -7 117
185 11 17 11 117
53 7 -9 12 116
-204 -8 -75 -21 116
74 -5 -48 -13 115
149 15 -19 10 115
-129 13 -26 8 114
18 17 -27 3 114
203 30 -6 21 113
-131 21 -9 16 112
-156 10 -91 -20 112
134 9 -139 -15 111
-57 13 -73 13 110
-211 7 73 22 110
124 12 149 23 109
47 8 192 33 108
-180 2 49 -5 107
60 15 59 55 107
176 23 -8 11 106
-134 15 -25 -3 105
62 35 -20 15 104
260 40 0 31 103
-39 14 -43 -5 103
-91 -18 -59 -17 102
184 -11 -55 -26 101
-16 -13 -104 -41 100
-200 -21 -66 -29 99
108 -10 1 9 99
92 1 -84 -24 98
-207 5 -136 -28 97
32 -8 -333 -82 96
137 16 122 101 95
-170 15 391 127 94
-71 25 394 108 93
186 22 159 24 93
-69 21 -83 -16 92
-149 15 -70 -5 91
177 24 17 22 90
47 29 -32 -2 90
-152 19 -41 13 89
122 12 -36 -6 88
133 1 -59 -20 88
-171 2 -44 -12 87
35 7 -34 -7 86
197 24 -13 7 86
-100 20 -28 0 85
-48 35 -30 4 85
199 24 -25 2 84
-28 20 26 34 83
-148 16 48 62 83
161 12 -27 17 82
64 9 -129 -34 81
-175 -5 -42 -32 81
88 12 193 66 80
139 17 207 66 79
-171 3 110 35 78
-24 -10 -7 -9 78
180 3 -54 -21 77
-101 1 -31 -9 76
-91 1 -64 -20 76
200 9 -53 -6 75
-6 22 -19 7 75
-142 20 -16 12 74
177 35 -10 17 73
131 49 5 32 73
-140 41 10 29 72
101 38 10 31 72
205 45 -18 23 71
-121 15 -41 3 70
-23 6 -41 -5 70
186 10 -40 19 69
-111 -12 -20 29 68
-160 -25 -20 -16 68
143 -37 -2 -46 67
-28 -33 79 -34 66
-222 -27 30 -32 66
82 -11 61 8 65
91 -3 13 -5 64
-199 -7 -27 -29 64
24 -4 -72 -17 63
164 11 -59 -1 62
-133 8 -34 0 61
-49 8 -29 10 61
209 10 -20 17 60
-45 10 -20 12 59
-136 6 -21 1 59
177 16 -40 10 58
44 21 -30 16 57
-176 5 -75 -6 57
107 6 -110 -21 56
122 14 -86 15 55
-172 8 -23 30 54
22 24 166 55 54
188 31 238 68 53
-102 34 190 45 52
-69 32 71 32 51
204 27 -16 23 51
-45 18 -42 13 50
-150 11 -42 3 49
166 18 -35 9 48
65 15 -33 13 48
-188 2 -44 9 47
61 8 -35 14 46
97 -2 -50 -11 45
-137 10 -8 16 45
-19 -1 -24 1 44
192 27 -11 10 43
-115 -17 -41 -15 43
-131 -17 -36 -17 42
260 70 39 32 41
0 -14 0 0 40
-151 5 35 12 40
97 -8 -8 -19 39
120 11 14 -3 38
-189 7 -1 -16 37
78 16 2 21 37
188 5 -14 8 36
-142 2 -25 -9 35
-43 9 -20 -3 34
191 15 -21 -3 34
-49 15 -11 9 33
-122 8 -9 2 32
213 43 20 42 31
54 39 18 43 30
-133 43 26 60 30
116 7 0 17 29
127 24 5 22 28
-170 17 3 12 27
61 40 21 38 27
184 32 17 28 26
-90 24 13 21 25
-61 11 -11 0 25
177 0 -10 0 24
-71 -15 -20 -16 23
-188 -45 -52 -40 23
103 -35 -55 -40 22
-13 -48 -61 -51 21
-223 -35 -43 -31 21
72 -13 -26 -14 20
101 -9 -27 -15 20
-173 -7 -21 -17 19
-24 -2 0 -1 19
164 5 3 15 18
-97 15 -3 3 18
-89 5 -9 -9 17
178 20 43 57 17
-19 28 -1 6 17
-147 20 0 13 16
142 24 -2 12 16
77 26 -65 -74 15
-152 39 124 148 15
79 34 -58 -7 15
161 35 40 92 15
-143 12 -57 -24 14
-1 32 2 5 14
178 28 31 42 14
-57 30 21 28 14
-95 13 0 11 13
164 15 12 15 13
50 53 47 57 13
-153 10 0 6 13
132 26 21 22 13
89 12 4 0 13
-175 3 -30 -25 12
22 -5 -25 -17 12
162 23 30 17 12
-107 28 34 42 12
-54 10 -33 -12 12
193 30 -13 13 12
-64 5 -1 19 12
-128 4 -38 -23 12
145 7 -16 6 12
17 0 -27 -7 12
-174 -1 -3 -5 12
102 12 12 24 12
98 12 -15 -3 12
-152 13 -9 1 11
19 9 -16 -7 11
167 24 21 25 11
-89 31 -17 -20 11
-52 29 20 23 11
161 -11 -27 -2 10
-31 16 -5 19 10
-135 7 -19 2 10
153 16 -7 -17 10
53 8 15 -3 10
-153 13 -1 20 9
74 14 -13 15 9
139 39 -2 25 9
-132 18 -12 -1 9
1 18 4 10 9
171 18 15 32 8
-126 -12 -22 -10 8
-52 41 19 19 8
155 5 -10 2 8
-25 7 -9 3 7
-142 -3 -14 -3 7
123 7 -3 3 7
59 16 -2 -4 7
-150 12 35 39 7
59 12 3 -10 6
139 12 40 52 6
-134 14 -9 7 6
-11 39 16 29 6
199 44 9 31 6
-61 16 5 20 5
-118 2 -15 -4 5
120 -26 -22 -8 5
35 27 9 31 5
-168 1 -9 -4 5
121 19 7 12 5
90 15 -13 12 5
-170 4 -46 -13 4
44 20 -62 4 4
165 17 -53 17 4
-127 10 -14 29 4
-62 -7 59 21 4
196 21 79 17 4
-78 -3 12 -11 4
-122 15 -45 -19 4
169 12 -49 5 4
12 -1 23 7 4
-156 9 102 12 4
100 17 47 1 4
116 16 32 3 4
-165 5 -17 -2 4
3 -1 11 10 4
167 15 31 18 4
-113 8 -57 -17 4
-71 9 -82 8 4
189 15 -122 9 4
-24 21 -60 29 4
-130 12 -48 4 4
145 1 -30 -17 5
59 14 64 13 5
-167 5 121 22 5
78 9 152 3 5
135 12 8 -14 6
-143 4 -88 -17 6
0 9 -136 3 6
183 25 11 21 7
-89 7 91 50 7
-102 11 58 16 7
167 8 39 33 8
16 16 44 13 8
-135 24 59 5 9
164 37 38 11 9
104 24 -69 -4 10
-151 23 -99 29 11
75 22 -152 4 11
171 26 -118 34 12
-85 48 -101 21 12
0 44 55 55 13
196 43 73 33 14
-67 25 199 73 14
-128 -5 209 16 15
109 -22 114 -35 16
-28 -29 25 -32 16
-160 -1 -100 -37 17
132 42 -43 19 18
144 72 15 64 19
-90 73 -69 30 19
68 54 -90 60 20
164 47 -127 56 21
-110 27 -104 5 22
-99 -33 8 -30 23
95 -48 67 -40 24
-174 -90 -54 -92 25
-219 -82 -73 -83 25
102 -36 -17 -29 26
46 1 69 -11 27
-158 -11 16 -5 28
62 -25 -58 -31 29
39 -44 -75 -35 30
-183 -34 -138 -32 31
5 -7 -72 -18 32
214 48 -65 41 33
-47 37 -42 36 34
-50 22 14 9 35
187 23 106 39 36
-5 18 145 10 37
-107 37 -43 22 38
164 35 -161 -9 39
68 25 21 65 40
-180 1 192 39 41
41 -2 94 -2 42
117 24 -84 -13 43
-124 36 -66 8 44
119 147 176 183 45
261 129 192 123 46
-35 63 44 56 47
-237 -144 -175 -159 48
132 -31 -33 -33 49
-9 12 -16 -8 50
-127 28 -190 -18 51
177 15 -143 -12 52
158 5 4 -56 52
80 34 96 50 53
159 38 -81 -7 54
195 21 -52 23 55
-247 23 206 56 56
-201 27 128 30 57
66 -5 -139 -20 58
-149 -31 -96 -35 59
-201 -42 105 34 60
81 -3 63 2 61
-20 9 -82 -18 62
-167 7 -11 3 63
103 15 247 80 63
88 14 145 50 64
-181 5 -130 -8 65
4 -4 -207 -44 66
141 2 -155 -37 67
-140 0 -40 -29 68
-52 13 -81 7 69
191 46 -23 21 70
-52 22 -27 26 71
-123 15 29 30 71
189 10 -12 18 72
55 5 0 32 73
-159 0 146 14 74
122 21 247 74 75
144 4 127 -2 75
-140 15 -28 16 76
4 1 -42 -15 77
175 15 -46 -16 78
-127 18 -128 -58 79
-92 9 -83 -40 80
254 48 186 79 81
16 54 135 93 81
-107 41 -285 -25 82
188 39 -169 -23 83
57 28 243 96 84
-146 22 103 -10 85
78 11 -20 -16 85
137 7 -208 -14 86
-179 -5 19 -45 87
-58 -9 163 13 88
161 9 -127 -33 88
-88 10 -344 -50 89
-103 16 -15 8 90
222 25 361 144 91
44 23 331 105 91
-133 27 65 54 92
157 10 -105 27 93
78 32 104 -21 93
-187 7 235 32 94
34 -2 -85 -30 95
129 -22 -307 -95 95
-171 0 -79 -10 96
-61 0 136 61 97
202 1 -125 -35 97
-73 -5 -296 -65 98
-150 -12 -92 6 99
155 3 62 7 99
7 9 103 80 100
-157 14 -33 -36 100
141 26 258 111 101
135 31 -63 -27 102
-168 -10 -194 -65 102
31 7 -43 -43 103
195 34 311 94 103
-78 75 337 172 104
15 81 -138 16 105
264 87 -88 53 105
-4 56 252 105 106
-137 20 221 67 106
132 -16 -171 -38 107
-5 -19 -432 -142 107
-156 -45 -202 -102 108
87 -22 27 -56 108
123 -4 236 64 109
-169 0 24 19 109
-34 -4 -81 16 110
197 15 89 38 110
-94 -5 -78 -59 111
-84 9 -183 0 111
223 34 152 118 112
3 55 119 62 112
-112 33 134 21 113
113 -4 12 19 113
10 -47 -25 -11 114
-276 -49 100 0 114
-35 -73 -153 -81 114
64 -56 -288 -119 115
-225 -26 -138 -105 115
-97 -23 131 32 116
181 10 -56 -15 116
-113 10 21 53 116
-131 26 109 57 117
197 36 -89 7 117
-12 -1 -214 -73 118
-204 -9 -360 -64 118
161 45 155 99 118
96 41 373 149 118
-185 32 238 64 119
47 -1 -111 -29 119
164 9 -156 -43 119
-102 25 -21 45 120
-56 -16 -62 -63 120
239 43 -42 67 120
-42 33 -15 40 120
-43 76 139 58 121
256 48 23 25 121
49 9 93 21 121
-187 -18 -45 9 121
96 -27 -191 -57 121
122 -7 1 -37 121
-190 -14 17 -1 122
45 11 56 -10 122
184 -7 59 28 122
-121 20 -96 -26 122
-54 27 -30 20 122
253 38 87 79 122
-21 44 19 22 122
-142 17 106 47 122
194 29 -57 -16 122
49 12 -70 -9 122
-196 14 40 7 122
88 -5 33 5 122
130 2 16 7 122
-192 -2 -42 -3 122
-11 -9 -59 -17 121
227 33 -10 18 121
-79 48 1 39 121
-71 45 -12 24 121
224 27 -32 19 121
-9 14 -11 21 121
-172 0 -175 -5 121
131 -6 23 9 120
76 9 115 -15 120
-190 0 73 -3 120
60 5 35 3 120
161 14 -58 5 119
-158 -8 -112 -43 119
-35 -16 1 1 119
187 8 120 71 118
-96 18 72 52 118
-107 3 68 2 117
199 0 -11 -4 117
-8 0 -51 -22 117
-111 17 6 25 116
163 24 -39 14 116
119 18 -32 16 115
-154 21 -3 26 115
13 19 -47 -9 114
151 30 -2 40 114
-128 33 17 24 113
-63 32 38 37 113
148 12 -118 -11 112
-106 5 -82 -8 112
-201 -26 -153 -63 111
100 -19 100 -1 111
-11 -22 33 -20 110
-219 -31 -16 -38 109
80 -14 106 2 109
115 -12 82 34 108
-162 7 134 27 107
29 14 23 -3 107
215 15 -19 11 106
-74 13 -3 19 105
-50 13 -47 4 105
227 16 -76 -12 104
9 22 -33 4 104
-120 15 -27 5 103
173 30 -22 16 102
58 26 -33 6 102
-202 2 -60 -9 101
61 -1 -67 -15 101
118 1 -59 -24 100
-177 -6 -66 -33 99
-25 5 45 24 99
182 22 -58 30 98
-90 23 108 36 97
-99 15 148 55 97
195 21 134 46 96
-1 11 58 32 95
-150 3 -71 -16 95
170 31 -19 12 94
136 51 111 80 93
-169 24 63 17 93
61 13 28 7 92
153 12 -40 -11 91
-175 -4 -155 -29 91
-27 14 -126 4 90
211 29 -11 19 89
-85 25 -33 -1 89
-135 6 -22 -9 88
174 4 5 -2 87
-14 2 96 15 87
-200 -8 138 12 86
125 0 23 11 86
123 17 -107 -9 85
-168 12 -40 4 84
96 16 -33 14 84
193 13 -30 12 83
-159 -6 28 5 82
-69 -7 79 -5 82
217 1 98 -4 81
-45 10 9 3 81
-126 15 -57 -1 80
201 23 -39 8 79
37 14 -43 9 79
-174 5 -57 -3 78
128 -4 -31 4 77
116 4 -50 -4 77
-209 1 -129 -8 76
-19 -3 -77 -6 75
174 13 30 30 75
-151 4 122 16 74
-103 -6 117 4 73
173 -26 -43 -36 72
-8 16 -40 13 72
-100 48 -16 37 71
223 57 41 50 70
124 46 35 35 70
-154 24 -34 14 69
81 21 39 27 68
161 15 27 14 67
-158 11 99 12 67
-23 7 87 24 66
183 6 39 7 65
-118 4 -5 0 65
-127 12 -46 -1 64
155 6 -91 -9 63
-22 7 -97 -9 63
-165 9 -73 0 62
132 8 -57 11 61
104 0 31 7 61
-156 4 68 25 60
36 -9 54 -15 59
170 29 29 32 59
-123 27 -48 8 58
-33 25 -49 18 58
204 27 40 49 57
-59 22 76 33 56
-115 22 36 17 56
148 0 -34 -1 55
7 4 -39 -6 54
-162 8 -37 10 54
80 -3 -32 -5 53
79 -3 -37 -15 52
-156 9 0 6 52
15 -1 19 10 51
172 45 45 49 50
-97 42 38 36 49
-71 29 22 31 49
152 44 33 37 48
-48 19 -5 9 47
-114 7 1 21 47
167 10 -13 0 46
39 -37 -19 -22 46
-161 -23 -17 -19 45
42 -24 -45 -25 44
90 -11 -43 -6 44
-156 -1 -55 -14 43
2 14 -33 0 42
189 30 -22 14 42
-75 4 -17 1 41
-85 -6 -83 -24 40
178 13 -152 -11 40
22 37 -14 32 39
-156 -12 76 1 39
109 3 33 -4 38
83 32 50 16 37
-172 5 7 7 37
67 9 157 30 36
137 8 181 28 36
-157 4 41 -13 35
-51 8 -36 -3 35
171 31 -24 28 34
-99 7 -59 2 34
-117 2 -68 0 33
161 15 -44 9 33
15 12 -33 31 33
-158 1 -32 0 33
131 12 -17 12 32
116 32 -6 14 32
-145 28 -12 -1 32
59 20 -6 3 31
200 16 -5 1 31
-112 10 9 22 31
-34 5 -43 -20 31
210 20 1 18 31
-32 23 13 31 30
-102 20 8 5 30
169 16 1 15 30
33 17 2 16 30
-163 15 1 12 30
112 23 12 25 30
111 13 1 9 30
-172 10 4 10 29
0 8 -7 -3 29
167 15 8 17 29
-149 -8 -34 -23 29
-69 19 7 15 29
178 15 2 13 28
-34 9 -3 7 28
-152 4 -17 -5 28
141 3 -19 -12 28
66 37 9 31 28
-141 24 28 34 27
88 12 -2 17 27
142 28 4 -2 27
-139 11 4 0 27
-9 7 -12 -1 26
165 12 -17 -4 26
-103 -1 -33 -15 26
-101 -3 -19 -6 25
165 8 8 8 25
-28 4 -12 -1 25
-131 13 0 4 24
136 15 11 25 24
77 4 -1 9 24
-163 -3 -5 20 23
62 7 0 6 23
143 5 -3 5 23
-147 -1 -22 -4 22
-36 -6 -25 -9 22
168 11 -4 12 22
-86 4 -11 3 21
-119 15 -9 7 21
152 8 -16 3 20
23 15 -9 -3 20
-133 25 5 13 20
109 27 20 41 20
117 35 11 18 19
-158 24 -33 -20 19
34 5 -10 19 19
154 23 -14 31 18
-135 -3 -25 -11 18
-50 4 -8 -4 18
177 21 10 17 17
-52 13 4 20 17
-129 2 0 5 17
149 10 -4 5 16
51 32 6 12 16
-147 16 -2 4 16
104 7 0 11 16
120 28 2 7 15
-145 8 -5 5 15
53 54 31 36 15
155 18 1 2 15
-93 27 4 28 14
-61 3 -8 -1 14
163 7 -1 3 14
-23 28 21 47 14
-139 4 -6 6 13
144 28 5 38 13
68 22 6 19 13
-166 4 -17 -1 13
76 13 -5 6 13
139 21 -12 -5 12
-132 33 17 31 12
6 25 0 7 12
191 15 -3 7 12
-100 5 31 39 12
-99 -3 -50 -42 12
157 -8 -10 7 12
6 13 -13 12 11
-173 -17 -32 -9 11
134 13 -18 8 11
76 5 -16 -5 11
-193 -17 -15 -13 11
55 20 8 3 10
155 29 2 13 10
-155 -6 -17 -11 10
-40 -1 -21 -10 10
169 4 -10 -8 9
-63 1 -5 -4 9
-141 -24 -15 -2 9
154 1 -10 -1 9
15 12 -3 -10 8
-177 -4 -17 -23 8
118 17 13 16 8
99 15 -2 5 8
-177 -4 -31 -23 7
29 -4 -37 -14 7
161 20 23 18 7
-127 15 29 25 7
-37 17 13 12 7
195 37 43 48 7
-41 19 7 25 6
-104 31 6 29 6
163 16 -7 22 6
26 16 -13 5 6
-163 1 -4 -11 6
82 -5 -24 -1 6
100 10 -14 -3 6
-169 -7 -15 -7 6
-4 -5 -23 -15 6
159 3 -12 -6 6
-117 6 6 24 6
-64 11 -6 3 5
174 4 -14 9 5
-39 -1 -28 -5 5
-149 5 -22 -7 5
151 14 -50 2 5
75 25 -42 4 5
-177 1 -83 -7 5
71 11 -73 15 5
135 18 -35 17 5
-148 8 24 16 5
-23 -3 115 20 6
168 3 105 15 6
-75 18 50 5 6
-87 18 -180 -16 6
184 19 -87 28 6
6 16 24 24 6
-145 16 186 26 6
133 20 165 4 6
98 22 37 -5 6
-161 3 45 20 6
52 15 19 11 6
136 8 14 16 7
-135 8 -59 -8 7
-33 5 -75 0 7
182 17 -76 13 7
-61 14 -38 -1 8
-115 3 -30 12 8
171 18 -5 15 8
35 27 -78 3 9
-131 22 -102 -14 9
126 26 -65 37 9
105 29 -29 5 10
-164 15 89 45 10
49 18 106 30 11
168 25 135 38 11
-107 13 93 22 12
-53 6 50 4 12
163 5 -90 -8 13
-47 7 -123 -17 13
-126 7 -79 -13 14
151 19 -2 -1 15
51 21 57 31 15
-146 17 83 31 16
107 16 155 60 16
124 21 71 31 17
-141 19 -137 -23 18
1 -1 -268 -52 19
157 4 -97 -19 19
-122 0 126 41 20
-91 10 146 0 21
165 19 -10 12 21
-14 13 -217 -48 22
-161 -1 -144 -3 23
146 15 114 56 24
90 32 197 21 25
-119 48 136 48 25
129 71 38 57 26
184 80 4 52 27
-69 100 37 85 28
60 86 -3 76 29
226 72 -96 51 29
-61 31 -61 35 30
-122 -7 33 31 31
119 -24 180 11 32
-81 -62 13 -66 33
-234 -81 -214 -145 34
22 -58 -195 -75 34
35 -41 -51 -28 35
-177 -30 73 -29 36
27 -45 -232 -99 37
79 -48 -407 -123 38
-164 -49 -183 -8 39
-73 -39 246 49 40
148 -10 376 37 41
-82 4 258 20 42
-112 19 105 16 43
138 12 -13 -8 44
35 33 -43 -8 45
-55 87 -42 56 46
125 56 -128 30 47
149 59 -201 -3 48
-146 10 -252 -56 49
10 17 -105 -27 50
153 43 19 41 51
-123 23 -49 45 52
-51 20 -1 -7 52
153 59 52 -17 53
-43 24 159 4 54
-88 13 -18 32 55
177 2 -15 39 56
122 26 225 110 57
-57 12 286 52 58
301 3 66 5 59
297 1 -205 -53 60
-120 -11 -208 -16 61
-37 1 -19 -11 62
35 15 171 77 63
-242 15 81 -5 64
-172 4 -158 -23 65
147 23 -204 13 66
-116 20 -35 1 67
-181 6 136 47 68
121 27 31 51 69
47 12 -118 -51 70
-176 5 -67 -40 71
77 20 297 78 72
142 36 257 85 73
-136 31 -72 40 73
-51 -13 -174 -40 74
147 -13 -105 -26 75
-102 13 76 17 76
-127 24 17 9 77
160 25 -257 -63 78
-25 19 -319 -92 79
-183 -7 19 -18 80
126 11 15 -42 80
121 20 -43 -12 81
-126 32 -32 -13 82
99 43 207 74 83
225 55 336 146 83
-95 22 -59 20 84
-28 10 -170 -19 85
202 7 101 16 86
-70 6 261 24 86
-127 4 160 24 87
181 11 -162 -36 88
19 9 -161 -26 89
-169 13 -89 -12 89
138 32 -23 53 90
100 18 -276 -9 91
-194 0 -93 20 91
36 -8 -85 -39 92
189 -5 2 -28 93
-107 12 256 49 93
-46 6 205 18 94
182 9 -174 -20 95
-59 17 73 86 95
-139 15 161 52 96
168 24 -109 -30 97
40 24 33 16 97
-178 9 46 17 98
95 4 229 87 98
118 -4 42 -45 99
-184 -7 -283 -62 99
18 6 -54 14 100
207 28 163 73 101
-95 -3 -293 -61 101
-93 -2 -315 -106 102
201 23 40 34 102
33 36 208 59 103
-113 23 152 70 104
195 26 -100 -5 104
64 25 -53 0 105
-206 21 81 41 105
105 24 44 -70 106
205 64 175 45 106
-133 52 -235 30 107
-1 11 -153 23 107
190 15 141 33 108
-101 11 391 72 109
-99 10 67 48 109
176 -3 -329 -44 110
5 -14 -60 -61 110
-191 -13 139 -38 111
157 11 -37 -17 111
103 1 -216 -7 112
-172 -4 -115 4 112
13 -29 51 -17 113
137 13 190 29 113
-173 -11 -327 -48 114
-33 5 10 0 114
201 -14 -85 0 115
-116 -3 145 62 115
-182 25 377 89 115
206 79 199 125 116
80 112 289 156 116
-98 101 -29 96 117
150 60 -301 12 117
130 60 28 39 118
-262 -24 84 -15 118
-58 -63 -66 -89 119
55 -88 -134 -134 119
-260 -102 -228 -135 119
-179 -99 -167 -140 120
149 -51 -244 -87 120
-84 -18 -102 59 120
-135 15 106 16 121
210 15 105 0 121
79 22 -14 9 121
-160 7 37 56 122
148 30 106 51 122
187 39 154 78 122
-160 12 13 -3 122
68 24 -143 0 123
224 25 -53 4 123
-110 15 1 -11 123
-72 -7 -130 -15 123
232 26 33 18 123
-22 24 -4 3 124
-141 23 65 -13 124
209 41 118 56 124
77 22 44 18 124
-202 12 9 18 124
94 -1 -35 -13 124
173 20 -142 -26 124
-164 15 -25 18 124
-17 10 125 63 124
235 39 94 34 124
-139 -6 -4 -36 124
-97 19 -12 0 124
210 10 -18 13 124
-17 25 79 58 124
-192 -2 -30 -17 124
155 1 -44 -12 124
110 19 -41 7 124
-195 16 -25 16 124
71 8 6 12 123
192 29 61 9 123
-174 22 6 10 123
-46 17 -16 3 123
259 15 -17 7 123
-110 20 19 15 123
-68 27 -37 15 123
204 10 -184 -25 122
33 18 -78 18 122
-185 21 45 26 122
118 16 144 60 122
101 18 199 53 121
-200 17 13 -24 121
56 23 -21 53 121
209 23 -35 33 120
-136 22 46 -7 120
-52 31 93 61 120
192 17 12 2 119
-61 17 -50 -2 119
-144 17 39 14 118
160 17 -8 7 118
69 23 -6 19 118
-160 11 -56 9 117
93 13 -41 -12 117
195 20 16 10 116
-146 27 22 34 116
29 8 -41 6 116
206 4 -108 -8 115
-118 -15 -119 -33 115
-126 20 -8 15 114
143 6 180 57 114
-83 -1 93 20 113
-220 -17 35 -7 112
71 -11 13 7 112
15 -1 -53 -11 111
-193 -5 -94 -5 111
59 10 18 16 110
160 31 84 40 110
-151 -4 81 1 109
-38 -22 -24 -32 108
163 -20 -265 -54 107
-80 -17 -163 -43 107
-93 -1 112 25 106
187 -18 141 10 105
39 12 141 30 105
-139 11 -53 1 104
155 16 -182 -36 103
129 20 24 33 102
-179 0 -1 15 102
25 21 -8 -3 101
159 24 45 22 100
-163 2 -3 12 99
-71 10 -38 14 98
183 40 -12 16 98
-55 28 -40 10 97
-125 32 -11 15 96
208 48 44 11 95
65 64 95 49 94
-118 47 -18 34 93
145 33 62 39 93
145 34 4 14 92
-218 -19 39 -40 91
-11 -5 -33 -29 90
102 -20 -58 -32 89
-118 25 104 52 88
-69 35 81 80 87
206 36 -2 35 87
-37 25 -28 9 86
-130 -12 -40 -17 85
153 -1 8 2 84
71 -3 -65 -14 83
-211 -43 -128 -60 82
79 -32 -97 -46 81
132 -27 -120 -39 80
-183 -33 -22 -41 79
1 -23 -32 -17 78
206 17 29 1 78
-141 8 25 5 77
-104 4 47 0 76
189 16 111 33 75
-43 22 96 27 74
-147 32 36 25 73
195 30 -16 29 72
106 22 -24 13 71
-170 5 -19 -12 70
102 4 -10 -5 70
158 9 -9 0 69
-161 2 -73 -14 68
-15 -5 -123 -27 67
201 8 -113 -7 66
-103 16 -80 -5 65
-99 36 103 50 64
187 34 72 48 64
0 35 148 33 63
-193 20 79 31 62
115 7 -48 -9 61
78 9 -163 -25 60
-201 9 3 31 59
65 4 168 37 59
205 3 239 59 58
-124 6 72 17 57
-31 13 -51 -6 56
187 2 -48 -7 56
-88 19 -47 -1 55
-137 20 -62 2 54
164 7 -79 -12 54
28 19 -83 -3 53
-172 15 -95 12 52
130 18 -21 8 52
117 2 49 12 51
-132 10 91 8 50
13 23 39 15 50
98 -9 -46 -26 49
-167 10 -20 7 49
-44 61 6 53 48
170 27 -33 21 48
9 16 10 47 47
-87 10 56 20 46
161 9 52 26 46
69 16 -23 2 45
-147 9 -37 9 45
51 5 -71 1 44
127 41 -28 13 44
-132 15 18 13 43
6 24 65 16 42
168 17 94 36 42
-73 41 45 22 41
-95 29 5 22 41
145 18 -12 13 40
-32 4 -40 -9 40
-152 -5 -45 -10 39
133 1 -37 -2 39
106 17 -17 14 38
-108 29 3 21 38
55 -3 -29 -10 37
155 30 0 19 36
-125 0 -21 -2 36
-38 11 -7 8 35
169 17 5 19 35
-59 11 -10 -3 34
-77 15 2 8 34
176 18 10 20 33
35 21 12 15 33
-175 -24 -33 -26 32
113 6 -3 1 31
146 54 34 34 31
-159 -11 -13 -12 30
53 7 -2 1 30
142 -10 -12 -9 29
-145 -10 -17 -12 29
-61 -8 -17 -6 28
208 19 -2 13 27
-63 7 -7 3 27
-124 -2 -7 7 26
183 16 6 21 26
36 25 1 21 25
-154 18 0 24 25
122 24 10 29 24
128 25 16 32 23
-173 -2 4 18 23
-2 -8 -32 -21 22
149 0 -13 -1 22
-122 1 -35 -27 21
-93 -11 -10 -10 21
213 41 37 52 20
-40 21 1 16 20
-140 16 -15 -2 20
131 -16 -48 -65 19
49 19 31 21 19
-187 2 22 35 18
83 14 -7 49 18
124 12 -39 8 18
-178 -7 -52 -26 17
14 32 20 35 17
212 56 54 72 17
-70 47 21 32 16
-67 34 24 18 16
233 64 72 65 16
-9 32 17 36 15
-133 19 15 15 15
104 -25 -50 -51 15
36 -8 -3 -9 15
-191 1 -10 1 14
47 -4 -41 -21 14
141 7 -21 -6 14
-144 19 6 25 14
-44 1 -7 21 14
168 9 -38 -5 13
-62 27 -9 0 13
-82 24 25 29 13
165 19 14 21 13
7 4 -11 -1 13
-168 -10 -25 -22 12
89 -5 -6 3 12
91 8 -9 -3 12
-137 25 11 21 12
35 29 4 16 11
149 8 -14 -5 11
-154 -19 -21 -8 11
-61 3 3 1 11
162 -1 -13 -12 10
-74 -18 -28 -30 10
-137 -11 -15 -11 10
164 21 -18 12 10
63 57 37 78 9
-121 24 -10 20 9
96 5 -15 -3 9
98 14 5 14 9
-169 -2 -21 -8 9
8 4 -17 -7 9
156 12 -14 -15 8
-130 -2 -5 -14 8
-47 24 0 5 8
188 27 3 17 8
-31 9 -19 -9 8
-136 1 -15 -7 8
163 25 10 2 7
75 40 16 24 7
-127 40 2 16 7
96 23 41 46 7
159 38 30 33 7
-126 17 9 19 7
12 34 18 33 7
176 14 -1 31 7
-128 -33 -54 -62 7
-89 17 50 56 7
202 46 -31 0 7
18 40 7 49 6
-161 -3 -31 6 6
137 10 -5 5 6
44 5 -7 1 6
-161 11 -5 0 6
38 -2 -23 -25 6
119 -11 -19 -10 5
-144 -5 -16 -7 5
-49 -20 -27 -17 5
178 11 -5 0 5
-91 -14 -7 -8 5
-121 -6 -32 -7 5
184 25 13 45 5
-23 -25 -49 -21 4
-159 -15 -33 -9 4
145 33 16 22 4
120 41 23 35 4
-147 22 12 16 4
59 12 6 11 4
158 17 5 15 4
-137 17 3 1 4
-20 33 12 24 4
192 14 27 34 4
-46 32 48 49 4
-119 18 -35 14 4
167 29 11 27 4
14 0 -29 -6 4
-159 13 5 5 4
98 14 -6 -9 4
115 16 -1 15 4
-162 6 -21 -12 4
8 -1 -8 -9 4
168 22 9 9 4
-101 15 11 17 4
-60 12 4 9 4
155 -9 -15 -12 4
-37 6 -7 2 4
-132 -1 -22 -14 4
143 16 -6 2 4
44 4 -13 -1 4
-198 -28 -41 -25 4
88 12 -15 14 4
129 15 -25 6 4
-138 32 -15 13 4
6 9 -5 1 4
155 -1 -1 -7 4
-91 7 -8 5 4
-68 23 -18 11 4
171 10 -44 5 4
-18 10 8 13 4
-159 -2 27 2 4
119 -3 9 -4 4
73 11 -24 3 4
-150 7 -16 10 5
62 16 -42 -3 5
123 0 -36 10 5
-130 18 -59 -5 5
-19 17 -15 32 5
193 25 103 29 6
-66 9 158 31 6
-109 14 135 16 6
168 17 63 -3 6
18 12 -29 -19 7
-159 5 -77 -21 7
115 17 -59 6 7
107 28 17 76 8
-162 11 -69 19 8
35 12 -46 49 9
172 28 27 33 9
-128 3 105 10 9
-37 22 89 13 10
185 17 -54 -13 10
-67 10 -99 -21 11
-119 18 2 36 11
172 21 -47 9 12
38 21 -121 -8 12
-165 0 -120 -1 13
98 7 25 0 14
118 11 69 4 14
-147 12 -81 -39 15
23 11 -196 -30 15
168 17 108 73 16
-114 17 287 67 17
-57 29 192 44 17
191 26 -95 -20 18
-14 17 -148 -21 19
-132 11 118 61 19
129 13 224 48 20
70 31 9 16 21
-148 24 -137 -7 22
97 27 -167 9 22
137 28 -123 -35 23
-140 18 -34 -8 24
-15 10 -18 32 25
158 20 190 86 25
-78 29 70 19 26
-56 46 -39 -9 27
243 80 21 55 28
52 71 109 64 29
-120 34 218 77 29
125 4 4 -6 30
30 -24 -183 -37 31
-216 -34 -143 -35 32
10 -43 -72 -60 33
98 -39 -76 -46 33
-163 -12 -176 -64 34
-75 -25 -278 -41 35
130 -36 -196 -73 36
-100 -42 111 -7 37
-159 -49 263 9 38
134 -22 346 42 38
-12 -8 75 -21 39
-164 -1 -176 -41 40
100 -3 -207 -4 41
79 -9 -116 -39 42
-169 6 1 -8 43
83 61 8 5 44
149 64 16 81 44
-77 46 -41 25 45
-6 22 69 62 46
198 48 7 36 47
-27 18 -44 6 48
-131 -12 -68 -23 49
109 -2 113 7 50
7 17 135 34 50
-131 44 40 8 51
103 51 -56 -3 52
101 59 63 60 53
-145 32 -72 -15 54
0 -14 -103 -27 55
167 -12 -44 -5 56
-99 -18 52 48 56
-50 -4 40 -3 57
197 17 0 28 58
-3 9 -108 42 59
-87 -3 -71 14 60
261 14 16 25 61
177 23 188 49 62
-18 13 84 20 62
141 13 24 -6 63
105 10 -149 -61 64
-276 -9 13 -33 65
-117 6 105 28 66
76 21 127 61 67
-136 27 -49 37 67
-144 28 -22 13 68
129 21 -39 6 69
-40 13 -387 -67 70
-190 1 -262 -9 71
115 11 58 24 72
79 15 238 27 72
-181 11 178 -8 73
57 16 152 44 74
129 18 278 136 75
-207 8 184 64 75
-74 -1 -225 -39 76
172 9 -251 -74 77
-89 29 11 31 78
-103 16 -117 -31 79
192 32 -195 -34 80
64 42 -101 -39 80
-143 19 12 10 81
177 39 -42 -15 82
127 37 12 47 83
-181 31 183 97 83
78 27 64 21 84
209 23 -120 -39 85
-95 25 -19 -55 86
-27 15 281 129 86
208 18 224 56 87
-58 -1 -53 -23 88
-118 -4 -295 -75 89
167 -4 -153 -59 89
17 4 4 24 90
-191 -8 -12 15 91
89 1 37 12 91
111 9 57 16 92
-155 19 -49 0 93
7 2 -102 -35 93
143 8 -70 1 94
-97 7 92 38 95
-72 7 83 19 95
193 10 103 20 96
-31 2 81 8 97
-149 23 67 42 97
144 29 12 47 98
49 9 44 28 99
-171 0 19 -5 99
58 -11 -112 -53 100
123 0 -261 -116 100
-150 -3 -144 -29 101
22 21 -77 -17 102
206 22 50 37 102
-86 23 189 41 103
-77 19 151 19 103
200 10 -123 -34 104
-9 39 -103 55 104
-136 8 -27 -31 105
153 2 5 9 105
83 22 77 -39 106
-169 10 8 40 106
85 32 -160 -37 107
154 15 -180 -3 107
-114 24 78 31 108
6 56 348 145 108
253 70 394 178 109
-44 39 -121 -13 109
-111 6 -311 -49 110
199 27 -73 -19 110
20 4 -16 10 111
-157 -33 -305 -99 111
136 -20 -92 -47 112
112 40 301 109 112
-177 24 190 37 112
48 -3 88 34 113
172 -12 -138 -51 113
-171 -13 -219 -25 114
-104 -5 8 -20 114
151 7 219 36 114
-121 -10 146 24 115
-194 -24 -109 -52 115
141 8 -197 13 116
-20 29 -21 -31 116
-172 50 358 105 116
181 90 158 92 117
219 93 -309 8 117
-198 48 -46 76 118
18 0 133 -13 118
81 -67 19 -32 118
-221 -73 -349 -93 118
-142 -96 -440 -162 119
116 -54 -38 -57 119
-109 -44 370 27 119
-204 -32 202 -11 120
174 -11 -149 -21 120
44 -14 -262 -66 120
-179 22 45 18 121
136 33 228 72 121
174 23 -89 15 121
-145 -6 -386 -37 121
-27 15 21 21 122
256 70 304 31 122
-56 29 15 -10 122
-83 -30 -148 -73 123
261 62 176 150 123
-18 28 87 26 123
-198 14 80 34 123
234 39 43 68 123
104 0 -52 1 124
-169 59 -196 -19 124
79 -14 -155 -14 124
182 13 127 -10 124
-202 14 253 71 124
-47 -4 -76 -55 125
223 -28 -269 -75 125
-119 -2 25 -27 125
-175 -3 290 29 125
208 13 -33 -35 125
-36 -28 -306 -81 125
-223 -10 -79 -16 126
173 32 151 91 126
89 9 5 61 126
-180 12 33 37 126
56 -8 19 -32 126
177 14 53 17 126
-154 31 63 28 126
-5 4 -221 -25 126
219 -16 -147 -19 126
-38 44 244 117 126
-118 28 77 9 126
218 26 69 57 126
43 9 -75 -14 126
-178 20 -9 19 126
137 33 85 31 126
156 35 24 16 126
-141 53 -3 33 126
55 63 69 67 126
220 47 27 46 126
-113 24 -20 11 126
-60 40 -21 27 126
234 54 1 49 126
-40 9 -18 1 126
-167 -12 -54 -15 126
115 -31 -47 -46 126
29 -13 -99 -19 126
-173 3 -113 -6 126
99 -3 -140 -36 126
117 -8 105 21 125
-142 31 208 35 125
22 14 119 12 125
181 11 0 15 125
-69 21 -98 -8 125
-64 25 120 80 124
215 25 50 19 124
31 13 -85 0 124
-122 16 -33 3 124
130 10 -9 -16 123
24 17 23 24 123
-182 31 33 41 123
23 13 -35 -9 122
125 11 -6 8 122
-190 -19 -19 -21 122
-65 -17 -21 -21 121
155 5 -4 4 121
-82 4 11 -3 121
-95 0 -59 -14 120
157 28 -110 -29 120
-16 -6 -86 -31 119
-174 -1 -50 6 119
132 11 -60 20 118
122 36 83 62 118
-125 17 189 63 117
76 20 97 14 117
189 23 85 23 116
-139 -4 -32 -27 115
-72 1 -19 -15 115
173 27 58 42 114
-94 12 -20 3 114
-171 4 -48 -5 113
127 1 -58 -11 112
-57 1 -26 -6 112
-216 -16 -95 -40 111
39 -6 -98 -59 110
107 22 5 5 110
-147 27 78 58 109
42 21 -66 8 108
241 54 -45 53 108
-61 59 39 47 107
-41 25 115 38 106
229 32 224 86 105
-41 -5 20 -27 105
-154 -14 34 24 104
179 5 6 9 103
59 6 -161 -25 102
-200 -16 -105 -38 102
85 -8 13 -2 101
130 2 47 -12 100
-191 -7 -33 -15 100
-48 -11 -65 -22 99
150 2 -35 -12 98
-109 -9 -43 -25 98
-91 18 -50 6 97
229 22 -86 -3 96
-18 7 -5 1 96
-213 -27 30 -15 95
127 -11 8 10 94
70 -3 -132 -32 93
-187 19 115 57 92
71 10 259 112 91
160 35 222 64 91
-164 31 28 20 90
-35 13 -113 -35 89
199 30 -33 8 88
-71 43 5 31 88
-114 15 -67 -10 87
189 31 -41 5 86
43 28 -14 7 86
-156 31 -54 21 85
177 37 -29 21 84
111 0 -26 -11 84
-201 -2 1 -11 83
29 4 -9 -4 82
190 8 -70 -6 82
-125 8 -16 11 81
-38 10 76 33 80
191 8 63 13 80
-65 -3 -90 -39 79
-126 0 -72 -32 78
162 -2 -17 28 77
-3 3 70 46 76
-192 10 115 51 76
96 10 96 21 75
111 15 73 10 74
-169 29 5 13 73
32 35 -61 7 72
280 52 -13 25 72
-59 51 19 47 71
21 46 3 44 70
229 26 -20 15 70
-43 20 -35 4 69
-145 14 -36 0 68
149 1 -23 1 67
24 -15 -59 -19 67
-220 -21 -113 -34 66
32 -21 -102 -19 65
93 -17 -71 -31 65
-171 2 -65 -20 64
-3 23 77 23 63
146 0 126 37 62
-96 14 140 27 62
-95 1 64 5 61
159 9 28 38 60
-24 4 55 50 60
-137 8 36 32 59
127 4 -53 -12 58
90 27 -55 6 57
-140 21 -27 9 57
54 10 -43 -2 56
134 2 -54 -15 55
-130 -8 -53 -12 55
-9 -14 -45 -22 54
225 9 -42 -9 54
-58 7 -87 -13 53
-104 0 -110 -4 52
125 10 4 25 52
-1 40 79 36 51
-156 8 19 0 50
141 21 -36 23 50
108 7 23 6 49
-206 8 151 22 49
-9 32 172 33 48
92 23 48 16 47
-178 7 -52 -1 47
-84 -5 -59 -14 46
158 16 -8 12 45
-64 10 -41 11 45
-130 18 -41 16 44
173 25 -27 24 44
