707 646 647 648 0
902 873 866 867 0
996 996 990 992 0
1084 1065 1057 1060 0
1108 1089 1078 1081 0
1068 1065 1057 1062 0
1005 996 988 992 0
886 870 860 864 0
666 652 646 648 0
138 16 16 18 0
135 15 16 18 0
139 10 15 17 0
131 11 18 23 0
133 11 19 24 0
132 11 21 26 0
124 9 21 24 0
128 9 21 23 0
122 15 15 20 0
121 15 15 20 0
124 14 16 20 0
118 14 14 20 0
121 14 14 19 0
118 12 14 16 0
115 12 13 15 0
117 11 12 13 0
112 11 12 21 0
117 13 12 21 0
117 8 11 20 0
116 9 14 21 0
116 12 14 21 0
113 12 14 21 0
117 12 15 22 0
117 14 14 25 0
115 15 14 25 0
120 15 11 24 0
117 15 11 18 0
116 12 17 22 0
118 12 26 27 0
112 14 25 28 0
117 13 27 29 0
115 13 27 28 0
110 13 27 28 0
118 17 28 31 0
113 16 27 31 0
115 16 28 31 0
114 15 28 30 0
111 15 21 23 0
117 15 16 20 0
114 16 17 25 0
116 16 19 25 0
118 16 19 24 0
117 16 20 24 0
116 7 20 23 0
112 8 20 24 0
116 8 20 28 0
119 9 22 34 0
117 9 25 36 0
118 9 29 37 0
116 12 29 36 0
115 11 26 35 0
120 11 27 35 0
114 17 27 36 0
118 17 26 34 0
119 18 27 34 0
113 18 26 29 0
118 19 25 25 0
113 19 20 22 0
119 21 17 20 0
120 19 14 15 0
115 19 14 16 0
119 20 28 32 0
118 16 34 44 0
117 16 34 44 0
120 14 34 46 0
118 14 36 47 0
118 14 35 46 0
116 13 36 47 0
113 11 36 47 0
116 8 36 47 0
115 11 36 47 0
117 10 25 34 0
117 10 18 20 0
118 13 19 20 0
120 13 18 17 0
116 14 15 15 0
119 13 17 19 0
120 12 18 21 0
115 11 17 21 0
118 12 18 22 0
115 11 18 22 0
117 15 22 23 0
120 15 22 24 0
113 13 21 24 0
117 13 20 23 0
117 10 20 23 0
114 11 18 21 0
118 12 16 19 0
113 16 15 15 0
118 16 14 15 0
118 18 16 15 0
110 14 11 16 0
114 14 12 21 0
111 16 15 24 0
110 15 29 25 0
112 14 30 25 0
108 14 30 25 0
114 17 29 23 0
114 18 33 29 0
111 18 33 31 0
115 16 32 31 0
115 19 33 32 0
115 19 30 27 0
115 19 30 27 0
112 19 20 26 0
115 19 18 25 0
113 19 18 25 0
113 17 18 24 0
113 13 11 18 0
112 14 14 18 0
116 14 15 20 0
111 10 13 18 0
113 10 13 18 0
115 10 13 16 0
114 10 14 17 0
118 11 22 17 0
117 13 24 20 0
114 12 24 19 0
117 11 24 19 0
110 10 23 17 0
105 13 24 15 0
105 14 24 15 0
99 16 25 18 0
102 16 30 25 0
97 16 30 26 0
96 16 24 25 0
98 15 23 24 0
95 16 24 27 0
99 17 28 29 0
97 17 27 29 0
107 16 29 29 0
110 16 29 35 0
109 15 43 49 0
114 15 41 45 0
113 15 41 46 0
107 19 44 50 0
109 21 45 50 0
105 21 44 48 0
106 21 42 47 0
106 20 43 48 0
100 18 42 51 0
107 20 44 52 0
105 21 28 40 0
105 21 28 39 0
107 21 28 38 0
109 16 23 33 0
114 14 23 33 0
112 15 23 35 0
115 15 22 34 0
117 14 22 33 0
112 12 20 27 0
110 14 12 21 0
108 13 13 21 0
111 13 14 25 0
118 14 15 28 0
113 16 22 34 0
116 16 22 35 0
116 15 22 34 0
113 15 22 34 0
124 19 25 37 0
121 21 26 36 0
127 20 26 33 0
128 19 26 32 0
119 19 26 29 0
119 19 24 26 0
118 17 19 18 0
117 18 19 18 0
121 18 18 18 0
115 17 18 16 0
106 10 7 6 0
106 9 11 10 0
100 11 12 11 0
103 11 14 11 0
100 11 14 17 0
103 11 14 17 0
105 11 15 17 0
105 16 16 18 0
109 16 16 18 0
107 19 18 21 0
109 19 18 21 0
111 23 20 25 0
110 23 19 26 0
116 23 18 25 0
116 22 18 22 0
114 22 18 23 0
121 22 17 24 0
114 19 19 25 0
118 19 18 25 0
118 15 15 21 0
116 16 16 22 0
122 8 13 20 0
118 7 14 20 0
116 8 14 20 0
119 9 14 20 0
114 7 16 19 0
117 7 16 17 0
115 7 14 15 0
113 6 14 15 0
117 8 14 15 0
114 9 14 15 0
116 9 12 7 0
115 9 12 8 1
114 8 12 8 1
116 8 11 7 1
113 8 7 7 1
116 9 7 6 1
119 12 9 10 1
115 12 9 10 1
118 11 8 9 1
115 11 9 9 1
114 11 9 9 1
118 11 9 10 1
115 11 10 10 1
122 11 9 10 1
120 12 10 12 1
114 14 11 12 1
116 11 8 9 1
114 11 8 9 1
116 12 8 10 1
116 11 8 10 1
115 11 7 9 1
117 11 7 8 2
113 12 7 8 2
111 12 7 8 2
112 11 6 5 2
115 9 10 11 2
123 12 11 12 2
119 11 11 11 3
119 11 11 11 3
122 11 11 11 3
115 14 11 11 3
120 15 11 10 3
119 14 11 10 3
120 15 13 10 4
124 15 13 10 4
117 14 9 6 4
112 12 9 7 4
112 12 9 7 4
111 13 10 8 4
113 13 11 8 5
110 14 13 11 5
114 13 14 11 5
116 13 14 11 5
108 10 11 9 5
110 10 11 10 5
108 12 12 12 6
115 17 17 16 6
117 17 17 16 6
109 21 18 17 6
118 22 18 18 6
118 19 15 15 6
110 16 11 10 6
115 15 10 10 6
113 14 8 9 6
124 23 20 19 6
124 29 23 24 6
113 31 25 26 6
117 31 25 26 6
118 29 25 25 6
115 26 24 23 6
119 23 21 19 6
122 22 20 18 6
118 20 17 16 6
115 19 14 14 6
107 21 16 17 6
117 25 23 22 6
123 31 32 30 6
122 32 38 36 6
124 39 45 43 6
133 46 52 49 6
128 48 53 50 6
113 45 49 47 6
125 36 40 37 6
123 27 27 25 6
111 21 18 17 6
117 18 15 11 7
115 17 15 10 7
114 14 15 12 7
114 17 17 14 7
104 17 16 15 7
115 19 16 18 7
115 17 12 18 7
107 16 11 19 7
114 15 12 17 7
114 15 12 16 7
113 13 12 14 7
113 7 11 8 7
118 8 11 8 7
122 7 11 7 7
118 7 12 6 7
120 7 12 7 7
121 9 12 7 7
116 10 11 8 7
121 10 11 8 7
120 10 11 8 7
117 9 9 8 8
121 10 9 7 8
115 11 10 9 8
113 9 9 10 8
113 13 14 15 8
122 23 23 24 8
121 28 30 31 8
113 33 37 37 8
129 37 39 39 8
129 37 38 39 8
111 34 34 34 8
121 30 31 29 8
121 25 25 23 8
121 23 24 23 8
121 26 27 28 7
114 32 34 35 7
129 40 38 39 7
131 43 42 42 7
117 41 40 39 7
125 38 36 34 7
125 29 28 27 7
121 23 20 21 7
118 16 14 16 7
115 16 13 16 7
118 15 13 16 7
115 15 13 16 7
119 14 15 18 7
118 19 19 22 7
112 22 24 26 7
123 28 31 32 7
124 29 32 33 7
114 29 30 31 7
119 27 27 28 7
122 25 24 24 7
119 21 18 18 7
113 11 10 8 7
121 9 9 7 7
125 9 8 7 7
121 8 9 8 7
126 9 8 7 7
126 11 9 10 7
119 13 12 12 7
128 15 14 14 7
127 20 17 17 7
122 19 17 16 7
124 19 16 15 7
115 21 19 19 7
127 28 27 26 7
127 35 36 35 7
116 41 42 42 7
131 49 52 50 7
142 53 56 56 7
128 52 58 55 7
123 46 55 51 7
136 41 50 44 7
129 34 41 34 7
115 25 31 25 7
121 20 28 20 7
125 21 35 23 7
122 20 38 25 7
120 28 44 30 7
114 31 47 34 8
125 34 49 37 8
123 36 47 37 8
107 35 39 32 8
124 32 29 29 8
126 33 24 30 8
111 27 20 27 8
117 25 19 23 8
115 21 19 20 8
121 22 23 22 8
120 22 26 25 8
117 23 29 27 8
126 27 34 32 8
128 28 35 34 8
121 28 34 32 8
128 33 35 36 8
144 43 40 43 8
133 53 46 46 8
127 55 50 47 8
139 53 50 46 8
138 49 46 42 8
125 43 42 37 8
133 39 42 34 8
134 36 43 32 8
131 33 44 30 8
130 39 48 34 8
119 38 48 35 8
137 32 43 32 8
136 30 35 28 8
120 27 25 27 8
133 29 16 27 8
139 35 16 28 8
126 28 13 22 8
128 24 13 20 8
131 23 15 19 8
134 23 16 15 8
127 19 20 14 8
132 18 29 15 8
134 17 33 13 8
129 15 32 12 8
132 16 31 11 8
128 11 32 11 8
125 11 33 12 8
130 11 35 12 8
124 11 41 14 9
124 5 45 14 9
124 8 44 14 9
118 8 45 10 9
126 8 50 9 9
122 8 48 9 9
123 8 47 9 9
126 7 49 8 9
123 6 48 9 9
126 6 47 11 9
124 6 44 10 9
123 6 39 10 9
126 6 39 10 9
119 5 35 9 10
123 5 26 9 10
123 5 27 9 10
117 5 31 9 10
124 7 47 10 10
120 6 46 10 10
120 5 60 12 10
121 8 81 13 11
117 9 81 16 11
122 9 81 18 11
120 9 81 19 11
121 10 80 18 11
123 10 80 20 12
118 10 79 20 12
123 10 68 20 12
122 13 73 20 12
120 13 72 17 13
124 9 44 10 13
122 10 35 10 13
124 10 38 12 14
124 11 43 13 14
121 11 42 12 14
126 12 43 13 15
123 12 54 22 15
123 12 54 22 15
124 8 53 22 15
121 8 46 21 16
126 9 33 20 16
123 9 32 21 16
123 8 32 22 17
126 7 37 22 17
121 7 41 22 17
125 5 42 21 18
123 4 39 16 18
124 5 39 15 18
130 6 38 15 19
127 6 40 16 19
126 6 40 17 19
126 6 38 14 20
122 5 49 14 20
129 5 50 15 20
125 5 62 18 21
126 7 62 18 21
128 8 64 18 22
118 8 82 18 22
122 8 84 18 22
121 8 82 18 23
125 10 81 18 23
128 10 82 19 24
125 10 83 23 24
127 9 93 26 25
126 10 94 28 25
126 12 95 31 25
130 11 94 30 26
127 11 72 29 26
132 13 65 30 27
132 14 62 26 27
122 10 74 25 28
128 9 94 28 28
126 10 98 31 29
130 14 86 31 30
131 15 85 30 30
123 16 89 27 31
131 17 88 29 31
129 18 89 35 32
122 15 89 31 32
127 10 89 29 33
126 6 89 30 33
127 7 76 29 34
127 9 68 30 35
122 9 65 30 35
128 10 53 28 36
125 10 44 28 36
124 9 48 27 37
127 8 45 17 38
124 9 83 20 38
128 10 86 19 39
124 8 97 25 39
128 10 110 26 40
129 10 113 26 41
122 9 114 30 41
127 9 121 28 42
127 9 121 30 43
126 7 128 34 43
129 7 146 36 44
125 7 130 34 45
129 6 123 36 45
129 8 121 35 46
123 8 112 34 47
131 12 116 37 47
130 13 127 35 48
130 12 127 34 49
132 12 132 39 49
126 12 153 42 50
132 13 138 40 51
130 13 139 42 51
130 13 143 41 52
134 13 149 41 53
128 13 172 43 53
133 12 167 46 54
133 11 164 46 55
125 11 160 47 55
130 10 160 42 56
125 10 140 32 57
131 8 136 31 57
131 8 138 34 58
123 8 151 33 59
131 8 151 36 59
135 8 122 31 60
131 7 131 27 61
132 6 122 25 61
127 5 122 28 62
141 5 119 29 63
141 5 106 27 64
132 5 93 27 64
142 4 112 26 65
140 4 119 27 66
140 7 113 24 66
131 8 113 26 67
131 7 100 24 68
136 7 107 24 69
136 7 111 22 69
129 7 116 20 70
131 7 108 21 71
132 8 115 20 72
129 8 117 24 72
125 8 100 23 73
128 7 101 22 74
132 7 104 23 75
127 7 104 22 75
135 7 121 22 76
134 8 132 23 77
132 8 137 26 78
139 9 160 26 78
134 8 154 32 79
137 10 185 42 80
137 9 206 44 81
130 9 206 44 81
142 12 217 51 82
139 16 237 61 83
140 16 230 61 84
142 15 221 60 84
137 15 216 59 85
136 15 195 57 86
133 15 196 59 87
134 12 160 51 88
139 12 113 47 88
136 13 99 47 89
134 12 99 43 90
133 7 77 32 91
132 8 89 34 91
137 18 89 35 92
134 20 136 38 93
140 21 142 38 93
140 21 164 35 94
134 20 169 32 95
140 25 176 36 95
137 30 210 55 96
130 32 212 57 97
133 32 250 67 97
127 32 246 66 98
137 26 254 67 99
135 21 264 69 99
132 17 261 70 100
138 20 260 70 101
134 21 255 70 102
134 19 253 72 102
134 15 225 59 103
139 14 230 59 104
141 13 192 49 104
134 11 189 49 105
134 10 185 50 105
138 11 133 43 106
134 11 168 50 107
141 12 160 52 107
138 12 203 55 108
142 16 231 57 108
143 15 226 50 109
138 12 240 60 110
149 17 240 61 110
149 21 274 72 111
141 21 271 72 111
142 24 308 78 112
137 26 281 70 112
140 26 295 70 113
140 26 282 69 114
129 29 320 81 114
136 29 321 81 115
133 28 324 79 115
128 25 333 81 116
128 19 322 72 116
128 15 326 73 117
136 15 302 72 117
134 15 302 72 118
134 16 270 75 118
139 16 265 75 119
139 13 210 69 119
136 19 208 70 120
139 33 184 64 120
167 64 220 95 120
168 65 195 93 121
165 66 187 85 121
159 80 193 92 122
173 94 202 100 122
181 99 204 98 123
180 103 212 108 123
176 105 215 108 123
186 103 254 112 124
180 96 254 113 124
143 62 229 87 125
151 48 225 80 125
151 48 199 76 125
170 47 201 76 126
165 36 205 75 126
148 37 205 74 126
166 30 214 71 126
166 27 221 79 127
153 35 220 98 127
166 33 218 104 127
159 34 236 107 127
161 36 251 111 128
163 33 251 111 128
159 33 251 108 128
161 30 250 109 128
157 33 247 103 128
147 41 228 94 128
159 43 226 93 128
161 39 166 61 128
156 31 115 37 129
155 33 99 35 129
154 32 96 38 129
157 30 99 39 129
147 25 103 38 129
152 17 102 39 129
153 19 121 40 129
155 17 130 42 129
155 16 130 42 129
151 14 136 40 128
159 14 141 34 128
159 10 145 34 128
148 12 137 29 128
155 11 144 32 128
153 11 136 31 128
149 10 140 32 128
153 10 128 34 128
148 10 116 32 128
148 9 115 30 128
147 7 104 27 128
147 7 79 20 127
151 7 75 21 127
145 6 71 21 127
152 10 56 26 127
152 15 58 27 127
148 18 51 30 126
155 18 57 33 126
153 21 78 33 126
158 22 79 34 125
162 22 78 34 125
151 23 80 37 125
157 23 79 36 124
156 23 80 36 124
142 22 81 34 124
149 18 93 37 123
149 22 95 37 123
141 21 95 31 123
141 21 78 27 122
141 22 72 27 122
140 20 73 26 122
133 20 71 26 121
136 14 54 17 121
138 10 24 12 120
134 14 31 24 120
136 14 28 25 120
132 13 28 23 119
135 11 59 22 118
139 11 62 22 118
128 10 66 22 117
133 9 59 21 117
132 9 57 20 116
128 9 53 19 115
135 8 51 18 115
131 7 59 16 114
132 8 62 16 113
133 8 60 16 113
135 11 53 27 112
137 10 50 27 111
131 10 43 26 111
130 10 44 27 110
132 12 44 28 109
128 10 54 28 108
132 10 59 27 108
131 13 59 27 107
138 13 57 26 106
148 14 57 26 106
141 15 58 25 105
144 16 57 25 104
144 18 55 25 103
146 18 50 23 103
150 18 51 23 102
146 20 67 26 101
147 21 66 26 100
148 18 54 21 99
140 14 70 24 99
137 5 76 22 98
134 5 93 26 97
143 9 109 38 96
143 9 112 37 95
137 9 129 45 94
147 8 139 47 93
146 9 130 45 92
144 8 126 46 92
147 9 126 46 91
144 11 122 43 90
149 15 120 42 89
148 18 105 40 89
142 15 77 24 88
152 15 76 24 87
147 15 55 15 87
146 14 33 11 86
147 12 35 11 85
141 10 36 9 85
149 12 33 18 84
144 13 49 20 83
149 14 48 23 82
150 17 57 34 82
141 18 71 36 81
147 18 76 36 80
146 18 77 36 79
140 19 70 36 78
146 19 62 37 78
145 19 54 36 77
140 17 58 30 76
140 19 64 33 75
133 18 68 32 75
144 13 67 21 74
143 10 53 10 73
137 10 39 12 73
139 8 34 10 72
135 10 34 10 71
139 11 40 12 70
136 11 53 13 69
139 11 53 13 69
142 11 53 13 68
135 11 53 15 67
138 11 83 21 66
135 9 95 21 65
134 5 91 18 64
140 4 82 19 64
135 8 77 18 63
138 10 79 18 62
138 10 79 18 61
133 9 80 17 60
137 9 78 17 60
132 8 80 17 59
131 9 63 12 58
133 10 38 12 57
129 10 22 12 57
131 11 22 10 56
129 9 33 12 55
127 10 62 13 54
132 8 65 16 53
128 7 66 16 53
130 8 67 18 52
130 7 72 20 51
129 8 72 21 50
131 8 69 20 49
126 9 62 19 49
129 9 73 21 48
129 9 90 22 47
123 9 85 21 46
126 8 88 18 45
123 7 86 18 45
126 7 84 18 44
126 7 87 18 43
119 8 88 19 43
122 12 90 21 42
122 12 91 21 42
119 12 78 14 41
124 12 39 10 41
118 11 16 9 40
124 11 18 9 40
124 11 21 10 39
121 12 21 10 39
129 11 19 11 38
124 12 18 11 38
130 8 13 7 37
132 9 13 8 37
130 9 12 9 36
132 7 11 9 36
128 7 10 9 35
130 7 10 9 35
134 7 10 10 34
131 7 10 10 34
130 6 8 9 33
129 7 8 9 33
134 9 9 11 32
135 9 9 11 31
128 9 8 11 31
131 11 11 11 30
132 12 13 11 30
122 12 13 10 29
128 12 12 10 29
123 12 12 9 28
129 12 12 9 27
130 13 12 10 27
121 11 8 8 26
132 11 7 8 26
130 11 7 8 25
133 11 7 8 25
136 10 6 8 24
132 10 6 8 23
133 9 6 7 23
131 8 7 10 22
125 10 7 12 22
131 9 8 11 21
127 9 10 12 21
127 9 13 15 20
127 12 13 16 20
122 12 15 18 19
128 13 15 20 19
124 28 31 39 18
138 37 37 47 18
139 38 40 49 17
137 38 40 49 17
141 38 40 49 17
140 38 40 49 16
138 37 40 46 16
140 38 45 49 16
135 43 50 50 15
141 43 50 49 15
141 38 43 41 15
123 27 36 29 14
130 18 25 21 14
129 17 24 20 14
123 16 23 20 13
125 13 17 12 13
121 14 19 10 13
133 26 23 17 13
135 30 24 22 13
129 30 24 24 12
133 30 25 24 12
131 28 23 22 12
131 27 22 22 12
129 27 24 23 12
130 23 21 21 12
132 19 19 19 12
128 20 20 21 11
126 16 18 20 11
123 9 13 15 11
121 9 13 15 11
125 7 12 15 11
122 8 12 15 11
123 8 13 15 11
124 6 10 13 11
120 8 13 18 10
124 8 14 18 10
121 8 16 18 10
118 8 16 21 10
121 8 16 21 10
118 8 20 23 10
122 8 24 33 10
121 11 25 34 10
121 10 24 34 9
129 14 25 34 9
126 15 24 32 9
129 15 24 32 9
130 14 24 34 9
128 13 22 31 9
133 12 22 30 8
129 13 16 22 8
131 13 12 14 8
133 12 13 13 7
126 11 13 13 7
127 9 13 13 7
124 8 14 13 7
127 8 12 15 7
131 9 15 16 6
127 9 23 21 6
131 9 25 26 6
130 10 25 25 6
130 12 25 25 6
135 12 25 25 5
132 13 25 25 5
132 13 25 27 5
134 13 25 27 5
130 18 26 26 5
134 17 24 27 5
132 18 22 23 5
132 18 19 19 4
134 16 21 21 4
129 14 20 20 4
135 13 20 20 4
133 13 20 20 4
136 13 20 17 4
142 13 19 17 4
135 8 17 16 4
142 8 15 12 4
141 10 12 13 3
136 12 12 13 3
140 12 12 16 3
134 12 13 16 3
134 12 13 17 3
136 12 14 17 3
132 13 14 16 3
136 12 15 16 3
132 13 16 17 3
128 12 15 17 3
130 12 16 18 3
127 10 17 18 3
134 10 17 10 3
133 11 17 11 3
129 9 17 10 3
133 10 26 10 3
128 10 29 10 3
127 10 29 9 3
126 6 28 5 3
126 6 28 7 3
133 6 27 10 3
131 10 25 11 3
127 10 33 11 3
130 12 51 11 3
127 12 52 12 3
131 12 58 13 3
128 11 75 13 3
128 10 81 11 4
131 9 81 13 4
124 8 81 14 4
127 8 80 15 4
126 7 80 15 4
128 8 75 18 4
131 10 65 24 5
125 9 60 22 5
126 9 59 22 5
127 9 50 22 6
124 9 48 22 6
129 8 49 23 6
126 9 51 23 7
127 9 52 22 7
129 10 57 25 8
123 10 58 24 8
130 8 52 21 9
128 7 46 20 9
128 9 47 22 10
133 9 67 31 10
128 9 93 36 11
132 9 107 36 11
131 11 108 36 12
127 10 107 35 12
132 10 105 33 13
128 9 106 32 13
128 6 104 26 14
129 6 107 28 15
127 6 110 28 15
132 7 112 29 16
129 7 89 21 17
128 7 55 21 17
132 6 48 28 18
129 6 51 28 19
133 7 65 32 19
132 9 71 33 20
131 9 70 33 21
135 9 70 33 21
129 8 78 37 22
136 10 75 32 23
135 12 67 31 23
131 13 61 37 24
140 14 86 38 25
136 14 90 38 25
135 12 88 35 26
136 9 94 35 27
132 8 117 38 28
135 8 118 40 28
132 9 128 45 29
128 9 136 49 30
132 8 131 49 31
128 9 130 43 32
127 8 123 41 32
125 10 121 41 33
125 10 123 40 34
127 9 132 39 35
123 8 116 34 36
125 8 112 35 36
126 9 107 26 37
124 12 94 21 38
123 15 94 20 39
118 17 100 24 40
125 20 97 22 41
126 19 108 21 42
124 19 123 23 43
130 18 113 27 44
129 17 102 26 44
122 17 112 24 45
125 19 116 25 46
117 21 115 25 47
131 20 113 25 48
131 18 111 20 49
120 10 125 21 50
128 10 121 23 51
122 10 117 29 52
119 10 103 26 53
120 11 103 26 54
126 11 100 25 55
118 11 101 25 55
113 8 111 26 56
112 6 109 26 57
126 5 103 26 58
136 6 85 26 59
131 8 96 27 60
128 11 100 23 61
146 11 126 29 62
145 11 140 33 63
134 12 146 33 64
142 12 152 33 64
143 14 162 39 65
133 18 178 46 66
133 20 178 49 67
124 21 196 49 68
135 18 179 42 69
136 12 179 42 69
119 11 168 43 70
129 11 160 49 71
126 11 153 49 72
127 11 146 47 73
130 14 134 45 73
132 15 109 39 74
137 14 107 36 75
135 11 75 34 76
139 12 70 39 76
143 12 91 43 77
136 11 112 43 78
143 11 123 41 79
144 11 123 40 79
140 12 148 48 80
145 13 154 48 81
140 12 155 48 82
140 14 155 48 82
144 15 156 49 83
137 15 165 54 84
140 13 181 60 85
139 12 182 67 85
144 12 175 70 86
147 12 179 74 87
141 11 154 68 88
148 15 151 67 88
148 15 178 74 89
143 13 177 74 90
144 13 193 73 91
138 15 191 68 91
151 21 180 67 92
151 23 170 50 93
137 21 177 54 94
143 22 188 56 94
141 22 187 56 95
141 18 187 57 96
143 19 159 53 96
141 19 164 52 97
147 19 173 66 98
146 18 157 62 99
136 12 179 64 99
142 6 171 61 100
139 7 167 59 101
143 7 166 65 101
144 10 203 74 102
141 13 200 74 103
144 15 267 95 103
137 16 266 95 104
136 15 299 87 105
138 18 330 93 105
132 19 327 92 106
135 22 373 109 107
132 24 381 111 107
137 24 379 107 108
140 22 362 100 108
132 20 369 101 109
138 20 326 88 109
138 21 334 95 110
141 21 283 92 111
145 13 228 75 111
140 12 226 75 112
141 11 187 62 112
141 10 208 60 113
127 14 226 62 113
135 23 226 69 114
131 25 211 65 114
134 23 247 81 115
134 25 239 75 115
124 26 273 88 115
138 25 260 92 116
136 23 250 88 116
136 25 278 91 117
142 27 268 92 117
143 29 254 92 118
137 26 265 94 118
134 24 303 95 119
130 24 294 91 119
137 25 312 95 119
135 22 298 83 120
126 20 271 73 120
128 19 277 74 120
128 19 269 74 121
128 18 270 75 121
123 22 274 78 121
129 22 264 73 122
130 19 185 54 122
129 23 185 53 122
137 22 150 43 122
135 22 113 40 123
140 19 108 39 123
145 18 87 39 123
138 17 70 25 123
146 17 70 25 123
145 18 62 23 123
142 18 64 22 123
144 19 65 31 123
137 14 61 26 123
135 13 71 26 123
136 11 68 26 123
131 10 66 29 123
139 13 70 36 123
136 13 55 35 123
133 11 53 34 123
134 14 58 37 123
131 14 59 37 123
144 14 66 35 123
142 14 68 36 123
142 14 70 36 122
145 15 75 36 122
143 14 76 34 122
143 12 75 26 122
141 10 74 24 122
139 8 74 22 121
141 5 75 20 121
138 5 72 22 121
139 7 67 19 121
140 7 73 24 120
141 8 56 22 120
148 10 35 22 120
143 10 50 27 119
143 10 49 27 119
145 14 62 38 118
139 15 76 39 118
149 17 84 41 118
147 17 82 39 117
138 14 83 40 117
142 12 69 33 116
133 14 71 34 116
136 15 73 34 115
135 15 76 33 115
135 14 75 33 115
140 12 71 23 114
138 12 61 21 114
131 9 41 15 113
139 10 21 12 113
142 10 22 12 112
142 9 24 13 112
140 9 25 16 111
140 11 32 19 110
143 13 59 30 110
134 15 67 30 109
137 15 68 30 108
138 15 67 30 108
138 15 69 29 107
136 13 68 27 106
126 12 67 27 106
136 11 61 24 105
136 11 57 26 105
130 15 60 27 104
136 14 51 15 103
133 12 46 14 103
128 10 37 11 102
136 10 40 16 101
141 14 42 17 101
144 14 44 18 100
141 18 53 24 99
141 18 68 27 99
146 18 76 27 98
141 18 80 34 97
144 17 75 32 96
148 16 72 34 96
154 17 72 34 95
150 19 75 36 94
137 19 81 38 93
148 21 78 39 93
148 17 83 39 92
134 15 78 35 91
143 13 70 33 90
141 13 66 29 90
139 7 67 28 89
141 7 51 16 88
134 13 25 15 88
139 14 24 16 87
139 14 26 18 86
128 14 37 19 86
134 12 38 15 85
134 13 40 16 84
128 11 39 14 83
130 12 41 21 82
138 16 44 29 82
138 14 37 27 81
132 14 43 28 80
140 13 42 26 79
142 14 43 26 78
138 16 44 29 77
145 16 45 30 77
144 17 45 34 76
149 20 52 37 75
149 21 59 36 74
134 19 55 28 73
147 20 45 24 73
146 18 47 23 72
137 15 53 19 71
143 13 54 15 70
140 12 60 15 69
138 12 63 23 68
139 12 68 24 67
135 12 70 25 67
143 12 63 25 66
141 15 48 25 65
135 14 24 17 64
141 15 30 15 63
139 13 37 11 63
143 10 42 10 62
141 10 47 13 61
139 10 49 10 61
143 11 45 11 60
135 10 43 12 59
138 10 36 12 59
138 10 27 11 58
139 8 27 10 57
140 6 26 10 57
134 6 39 9 56
134 6 75 15 55
134 7 85 15 54
129 8 89 17 54
130 9 89 18 53
127 9 86 16 52
130 12 85 16 52
132 12 74 13 51
125 13 62 10 50
126 13 60 10 50
124 13 66 9 49
122 13 51 9 48
125 13 40 13 48
121 13 25 11 47
127 13 19 10 46
128 13 19 10 46
128 12 19 11 45
132 12 22 11 44
126 13 19 13 44
136 14 21 14 43
138 14 30 13 42
132 14 49 14 42
136 13 53 14 41
134 13 53 15 40
133 13 52 15 40
135 14 51 15 39
125 12 51 16 38
135 12 45 16 38
135 11 42 16 37
120 7 43 15 37
129 7 45 15 36
128 7 34 13 36
133 6 27 11 35
132 6 27 12 35
129 7 23 12 34
144 15 23 15 34
141 15 16 14 33
135 16 16 14 33
137 16 16 15 32
141 16 16 15 32
134 17 16 14 31
130 17 16 14 31
136 28 36 31 31
147 32 43 41 30
143 32 42 41 30
137 29 42 40 29
135 29 45 40 29
135 29 45 41 29
139 29 42 40 28
133 28 42 40 28
138 28 42 40 28
139 27 42 40 27
129 16 31 26 27
128 7 19 9 27
124 9 21 12 26
125 10 22 13 26
128 9 17 12 26
122 12 13 12 25
126 12 10 13 25
124 14 9 14 25
123 13 10 14 24
126 13 10 14 24
119 13 9 15 24
125 13 9 15 23
124 17 10 15 23
123 16 11 15 23
127 16 11 14 23
125 15 11 13 22
125 15 11 13 22
127 13 11 11 22
123 13 11 11 22
129 13 11 11 21
127 13 10 11 21
128 15 14 12 21
133 12 13 9 21
127 13 12 10 20
130 13 13 10 20
128 12 12 11 20
128 14 13 11 20
132 14 13 14 20
128 14 13 14 20
128 14 16 16 19
127 14 20 24 19
121 12 20 25 19
121 10 20 24 19
119 10 22 25 19
121 10 23 28 19
122 9 26 30 19
117 7 26 30 18
121 8 26 29 18
119 9 26 29 18
123 11 26 27 18
125 13 23 21 18
119 12 22 20 18
123 12 21 21 17
122 12 19 19 17
121 13 17 19 17
126 13 10 17 17
119 14 11 17 16
120 13 13 17 16
121 14 19 19 16
112 11 17 17 16
118 7 17 18 15
115 10 19 19 15
122 13 21 20 15
122 25 29 25 14
112 30 36 27 14
136 45 48 40 14
138 44 50 43 14
132 42 47 42 13
133 40 40 42 13
131 43 43 42 13
146 52 50 45 13
147 59 65 56 12
138 65 67 61 12
151 66 72 66 12
153 63 67 62 12
130 46 54 46 11
125 34 41 33 11
129 21 32 27 11
131 18 28 28 11
129 24 32 32 10
114 36 45 43 10
124 40 45 43 10
126 36 47 42 9
122 32 39 32 9
119 32 38 32 9
122 29 35 31 9
122 26 28 25 8
112 24 28 26 8
117 23 23 23 8
117 23 23 23 8
127 22 24 22 8
125 17 18 17 7
118 18 17 15 7
125 18 20 17 7
126 21 23 20 7
117 21 21 18 7
123 17 17 16 7
122 17 16 16 7
125 17 16 17 7
126 16 13 17 7
118 16 12 18 7
126 18 12 20 7
126 20 18 22 7
120 19 22 20 7
126 15 20 15 7
126 10 18 10 7
124 9 23 8 7
123 8 37 10 7
121 8 43 10 7
125 8 44 10 7
122 8 48 14 7
122 8 49 14 7
125 8 54 14 7
117 8 52 14 7
123 8 79 22 7
121 9 140 26 7
122 9 153 25 7
126 8 145 24 7
120 8 140 24 7
125 9 139 24 7
124 10 140 24 8
122 10 143 24 8
126 10 135 22 8
123 9 131 23 9
125 8 131 18 9
126 8 86 11 9
123 8 51 14 10
128 8 50 17 10
126 5 50 17 11
124 6 54 19 11
127 5 71 22 12
124 5 72 21 12
128 4 73 22 12
126 4 78 22 13
126 8 81 22 13
130 9 79 24 14
124 8 71 25 15
126 8 66 26 15
126 9 72 32 16
119 9 74 32 16
126 9 92 31 17
123 9 95 32 17
123 8 95 34 18
124 6 95 34 19
121 5 94 38 19
123 7 97 34 20
119 6 118 30 21
120 6 117 31 22
121 8 110 26 22
123 14 111 28 23
119 21 92 31 24
119 28 92 39 25
129 33 105 44 25
129 33 138 48 26
120 31 163 44 27
132 33 194 51 28
131 31 157 39 29
119 27 171 38 30
125 18 217 51 30
123 22 228 53 31
136 27 226 56 32
136 28 226 55 33
127 27 230 56 34
136 26 220 53 35
135 26 216 52 35
128 22 170 39 36
137 17 179 40 37
140 19 182 50 38
141 20 155 46 39
139 26 155 54 40
127 37 155 59 40
130 39 156 59 41
123 39 154 58 42
132 40 151 57 43
133 41 134 54 44
132 41 134 55 45
130 40 107 51 45
123 35 77 35 46
126 34 85 32 47
127 32 80 24 48
131 19 84 16 49
136 17 75 14 50
134 17 76 15 50
123 16 74 15 51
126 16 73 21 52
119 17 74 22 53
126 21 84 25 54
126 24 85 24 54
121 26 90 25 55
127 26 89 25 56
125 23 90 29 57
120 23 106 36 58
138 22 108 34 59
142 17 108 37 60
147 13 114 37 61
151 14 123 37 62
143 16 133 34 62
153 14 123 35 63
154 12 115 34 64
151 11 97 34 65
145 12 104 32 66
152 6 113 27 67
135 6 121 33 67
121 8 141 35 68
124 7 145 34 69
126 8 146 32 70
140 9 135 36 71
137 11 140 41 72
129 12 147 42 73
136 12 151 40 74
141 13 163 40 74
133 13 159 41 75
137 14 180 45 76
134 15 167 41 77
134 16 168 40 78
135 16 164 42 78
127 16 160 40 79
132 15 160 40 80
131 13 168 48 81
133 13 178 53 82
134 9 207 56 83
131 8 205 55 83
135 8 192 47 84
135 7 192 47 85
132 8 182 47 86
140 8 182 48 86
137 8 178 47 87
136 9 185 45 88
139 10 166 45 89
140 11 165 45 89
141 12 129 45 90
137 14 128 45 91
136 16 116 45 92
147 19 110 46 92
143 23 126 62 93
144 26 156 66 94
145 27 157 67 95
145 25 168 69 95
148 21 149 57 96
136 14 154 53 97
142 11 156 53 97
144 11 156 53 98
138 11 156 50 99
143 11 147 48 100
143 24 137 56 100
141 22 125 53 101
146 21 121 54 102
140 22 112 56 102
143 27 206 79 103
143 28 204 80 104
136 28 234 90 104
138 27 262 93 105
134 25 262 92 106
128 25 269 92 106
126 20 276 85 107
123 26 332 121 108
127 27 349 124 108
125 27 369 136 109
130 23 347 132 109
131 20 343 129 110
126 20 335 128 110
135 20 321 130 111
134 22 334 134 111
136 23 328 133 112
137 23 319 134 112
131 19 256 98 113
134 17 218 88 114
132 19 231 84 114
122 18 203 70 115
132 18 208 70 115
134 18 191 67 116
128 18 185 61 116
127 13 158 52 116
128 15 159 52 117
128 14 158 50 117
125 14 156 51 118
127 14 152 47 118
133 16 121 49 118
131 15 102 50 119
130 16 120 58 119
126 15 123 54 119
134 13 123 54 120
133 13 123 53 120
123 13 124 54 120
136 13 123 54 120
136 14 123 53 121
127 15 124 53 121
136 12 74 36 121
133 13 80 34 121
136 14 69 23 121
136 14 96 28 121
131 11 101 27 121
138 10 110 26 121
136 10 109 26 121
134 10 111 25 121
139 10 115 30 121
136 10 114 36 121
135 7 119 38 121
132 17 116 42 121
133 17 101 40 121
140 17 94 37 121
136 17 90 37 121
140 17 87 38 121
140 15 84 36 121
138 14 80 36 121
142 11 67 26 120
138 9 68 23 120
137 10 70 23 120
138 6 60 17 120
137 6 64 15 120
140 7 65 16 119
139 7 64 15 119
141 7 55 10 119
145 7 55 12 118
140 7 60 15 118
139 11 60 21 118
138 11 71 24 117
146 11 68 26 117
151 11 62 30 116
140 10 67 31 116
143 10 70 35 115
143 10 70 35 115
142 10 66 35 114
142 10 70 36 114
138 10 71 37 113
152 10 71 35 113
152 10 61 34 112
134 10 66 33 112
141 10 64 29 111
140 8 53 26 111
135 8 36 11 110
140 8 37 12 110
132 10 51 30 109
141 11 57 31 109
141 11 66 33 108
128 10 66 32 107
136 8 66 31 106
136 8 78 36 106
135 9 77 35 105
136 10 80 35 104
134 11 77 34 104
132 13 60 32 103
129 13 59 30 102
129 13 59 32 102
134 12 62 32 101
130 10 65 32 100
138 12 65 31 99
136 12 33 17 99
135 13 32 17 98
137 13 32 16 97
131 13 34 15 97
138 12 32 14 96
138 11 21 14 95
131 10 22 12 94
134 8 63 15 94
133 8 74 15 93
127 8 79 16 92
128 7 79 17 91
127 7 78 17 90
130 7 76 17 90
129 8 71 18 89
128 8 65 18 88
133 9 65 19 87
131 9 68 20 87
138 9 62 18 86
136 8 55 19 86
137 7 41 19 85
140 7 42 18 84
132 9 49 18 84
139 10 44 17 83
138 10 58 14 82
136 10 99 15 82
139 11 114 15 81
135 12 115 16 80
128 13 111 13 80
132 13 109 11 79
129 12 109 10 78
134 13 107 13 77
132 14 97 14 77
129 15 92 15 76
132 16 89 14 75
126 17 63 15 74
130 18 33 17 73
129 19 39 20 73
135 17 64 23 72
137 13 66 18 71
131 7 71 18 70
133 9 83 20 69
133 11 96 24 68
135 14 100 25 68
139 14 102 24 67
136 14 108 25 66
135 14 107 25 65
138 13 99 22 64
130 10 72 13 64
132 8 55 7 63
129 8 55 6 62
128 8 53 7 62
132 8 51 6 61
127 8 56 10 60
133 9 55 12 59
132 10 41 12 59
129 12 40 12 58
140 16 38 16 57
141 24 38 16 57
142 24 36 15 56
143 22 27 13 55
141 20 25 13 55
143 17 24 12 54
134 16 25 11 53
134 16 22 12 53
140 20 31 18 52
138 21 48 18 52
135 20 52 15 51
129 10 51 13 50
127 10 61 13 50
129 14 64 14 49
124 14 65 14 48
135 14 69 17 48
135 12 74 18 47
131 13 72 18 47
136 12 73 17 46
131 13 68 17 45
129 12 64 18 45
131 12 64 17 44
128 12 65 19 44
133 10 70 20 43
128 10 70 20 43
125 8 70 17 42
128 10 62 12 41
124 10 65 12 41
125 9 68 12 40
124 9 69 13 40
126 9 69 14 39
129 9 71 14 39
125 10 62 12 38
142 15 50 15 38
142 15 49 15 37
133 15 46 14 37
142 13 39 14 36
140 14 36 14 36
143 14 29 13 36
143 14 19 13 35
135 17 21 16 35
140 17 18 16 34
142 23 20 19 34
131 22 19 18 33
141 23 21 20 33
140 23 21 20 33
135 23 21 20 32
133 21 18 19 32
128 22 18 20 31
135 23 19 20 31
135 22 19 19 30
138 21 18 19 30
138 17 16 18 30
131 11 14 13 29
124 12 12 13 29
119 12 11 12 28
124 12 11 13 28
128 12 13 11 27
124 12 11 10 27
129 13 11 11 27
128 12 11 11 26
121 10 9 9 26
124 10 9 7 25
119 10 11 10 25
124 9 11 10 25
124 13 15 19 24
120 13 16 19 24
120 14 14 19 23
117 14 14 19 23
122 14 14 19 22
124 14 14 19 22
123 14 15 20 22
125 15 18 22 21
123 16 17 21 21
125 15 17 21 20
128 14 15 18 20
125 14 15 18 20
130 11 15 18 19
128 14 16 20 19
122 13 16 20 19
123 13 16 20 18
120 14 16 21 18
121 13 14 19 18
122 12 14 19 17
126 25 31 37 17
131 25 30 37 17
126 24 31 38 16
131 24 33 39 16
133 23 39 43 16
129 22 39 43 16
135 22 40 43 15
132 23 40 43 15
138 24 40 43 15
140 25 40 43 15
128 10 27 25 14
131 10 27 25 14
130 10 27 24 14
127 11 22 22 14
131 10 13 13 13
127 10 12 8 13
131 10 9 8 13
131 15 10 10 12
121 17 13 14 12
129 15 13 14 12
125 17 13 14 12
128 17 15 16 11
128 19 16 19 11
123 19 18 21 11
130 21 18 26 11
128 22 20 32 11
121 21 21 32 10
126 17 19 30 10
125 11 17 29 10
122 9 16 28 10
122 10 16 29 10
119 10 18 29 9
127 11 18 29 9
124 12 19 27 9
121 10 21 22 9
123 8 18 14 9
120 8 19 14 9
125 9 20 14 8
123 11 22 9 8
125 11 25 9 8
129 11 25 8 8
122 10 26 9 7
126 9 33 10 7
125 9 39 10 7
126 9 41 10 7
130 10 42 11 7
126 10 44 12 7
130 11 50 14 6
129 8 56 13 6
124 9 53 13 6
128 9 54 14 6
126 11 57 14 6
123 12 55 15 6
124 12 51 15 6
120 11 50 15 6
126 11 49 14 6
123 11 50 16 6
124 11 47 15 6
128 11 43 16 6
125 11 44 15 6
130 11 42 12 6
129 10 64 15 6
130 9 87 19 6
133 11 94 21 6
128 11 92 20 7
131 10 94 20 7
131 11 91 19 7
122 10 89 17 7
128 10 84 14 7
127 10 81 13 8
126 10 88 13 8
129 8 91 14 9
126 8 73 12 9
131 8 54 10 9
129 8 61 12 10
128 8 62 12 10
134 6 62 11 11
131 7 61 12 11
131 8 61 10 12
131 7 68 16 12
128 7 67 17 13
134 8 51 19 13
129 8 42 19 14
130 8 42 20 14
133 8 58 18 15
127 8 63 19 15
131 8 62 19 16
128 8 63 18 16
130 8 63 20 17
133 8 65 17 17
127 9 65 17 18
127 7 65 20 19
126 9 56 20 19
122 9 58 20 20
126 9 46 20 20
123 9 37 19 21
125 8 38 18 22
125 7 35 15 22
122 7 37 14 23
128 7 31 17 24
127 11 40 21 25
128 13 49 17 25
130 11 62 17 26
126 11 66 17 27
129 11 87 20 28
125 11 86 22 28
125 11 117 22 29
131 14 133 22 30
126 13 134 21 30
128 13 134 22 31
125 13 158 27 32
129 19 191 39 33
130 22 182 38 34
125 22 199 39 34
127 21 199 36 35
132 25 200 39 36
133 30 193 45 37
130 32 190 51 38
125 33 189 52 39
125 33 189 52 40
127 33 167 48 40
118 27 94 27 41
130 20 94 24 42
130 15 98 30 43
131 17 81 32 44
130 21 82 32 45
118 25 84 32 46
130 24 74 26 47
130 23 72 22 48
128 23 137 45 48
139 23 139 44 49
137 23 170 44 50
128 18 249 57 51
132 15 257 58 52
145 14 261 58 53
147 15 267 61 54
150 19 264 61 55
141 21 266 60 56
154 24 271 61 57
158 26 239 46 58
152 24 236 47 59
150 23 227 46 60
159 20 154 33 60
156 16 128 29 61
124 13 156 48 62
133 16 148 46 63
134 15 161 48 64
143 15 175 52 65
140 13 173 51 66
131 10 174 52 67
139 9 158 50 68
139 9 154 54 68
126 11 189 53 69
137 12 200 51 70
136 13 198 43 71
130 13 206 45 72
134 13 198 47 73
131 13 171 39 74
133 11 172 38 74
132 11 195 45 75
129 11 191 45 76
134 11 194 45 77
130 10 169 40 78
132 11 126 38 78
132 10 122 38 79
133 10 115 34 80
134 9 99 30 81
131 9 87 28 82
135 10 99 30 82
137 10 83 27 83
134 10 83 23 84
136 10 80 22 84
135 11 73 22 85
138 13 69 23 86
140 14 71 21 87
129 12 71 21 87
138 12 73 21 88
138 14 74 28 89
142 15 69 27 89
147 15 77 24 90
145 15 90 29 91
146 20 91 32 91
146 23 107 36 92
133 23 112 38 93
143 20 111 38 93
142 18 118 39 94
137 17 147 46 94
145 17 148 37 95
139 16 164 33 96
143 14 163 34 96
139 19 155 39 97
140 21 160 41 97
144 21 152 41 98
142 21 166 53 99
140 21 167 55 99
141 19 190 57 100
139 16 172 49 100
135 13 215 51 101
124 12 251 59 101
127 12 253 60 102
131 19 280 75 103
130 21 272 71 103
134 21 279 72 104
132 21 284 68 104
137 22 283 69 105
140 22 263 67 105
132 22 272 67 106
141 19 234 63 106
141 11 153 40 107
133 16 244 61 107
135 18 243 55 108
126 17 252 58 108
128 17 248 59 109
129 17 241 60 109
123 17 243 58 110
133 17 255 58 110
133 19 243 58 111
131 15 216 51 111
135 17 223 52 111
134 17 175 42 112
143 16 166 38 112
141 17 168 35 113
140 16 165 31 113
155 23 160 40 114
152 23 150 37 114
147 23 143 37 114
144 20 144 40 115
146 21 137 39 115
146 17 110 44 115
137 15 102 44 115
138 17 104 44 116
139 17 99 45 116
137 20 99 44 116
131 14 112 34 116
127 14 106 30 116
133 14 92 27 117
136 15 97 39 117
128 14 97 40 117
137 14 93 36 117
137 14 96 42 117
131 13 95 42 117
139 12 86 44 117
134 8 85 44 118
136 8 66 44 118
136 10 81 48 118
134 10 87 50 118
137 11 86 44 118
132 10 85 44 118
133 9 83 41 118
135 8 66 31 118
132 9 82 30 118
136 10 98 33 118
133 10 98 33 118
132 10 98 34 118
136 6 89 31 118
133 9 73 26 118
139 10 81 27 118
138 10 95 28 117
136 10 88 24 117
142 10 87 23 117
137 10 83 24 117
134 10 67 23 117
135 10 67 23 117
131 11 67 24 117
136 11 60 18 116
130 8 54 13 116
132 7 60 16 116
137 7 57 24 116
134 8 62 27 115
135 10 72 33 115
133 13 75 34 115
136 14 75 34 114
141 14 75 34 114
137 14 75 33 114
136 16 75 32 113
138 16 71 29 113
141 18 48 26 112
142 18 50 26 112
133 17 54 25 112
147 16 49 18 111
148 12 48 13 111
140 8 51 10 110
145 8 52 10 110
143 8 53 12 109
146 10 54 19 109
146 12 42 23 108
135 10 48 28 108
144 10 49 30 107
144 10 54 32 107
134 11 70 39 106
140 11 69 42 106
139 12 67 41 105
139 11 67 40 104
141 11 73 40 104
137 11 73 39 103
144 11 77 41 103
138 11 62 35 102
145 10 51 31 102
146 11 56 31 101
136 12 52 25 100
140 12 55 17 100
137 11 59 18 99
138 11 55 17 99
140 10 35 13 98
135 9 25 12 98
142 9 28 11 97
142 9 27 13 96
129 10 24 16 96
135 10 40 22 95
135 10 40 23 94
135 9 73 40 94
137 9 90 43 93
132 8 90 43 92
139 7 91 46 91
136 8 94 46 91
137 9 93 46 90
140 10 94 47 90
136 7 93 46 89
140 7 79 42 89
137 8 80 40 88
145 13 64 27 87
146 15 35 19 87
139 15 30 19 86
140 15 31 14 86
142 14 28 14 85
139 12 33 15 84
143 9 35 11 84
138 9 43 17 83
144 11 44 19 82
145 11 44 21 82
131 9 50 21 81
138 8 52 20 80
137 6 51 21 79
139 9 49 21 79
139 9 52 21 78
130 9 67 20 77
138 9 66 20 76
138 9 67 20 76
129 8 72 18 75
137 8 72 17 74
135 8 73 15 74
135 6 74 15 73
135 6 73 16 72
132 5 71 19 71
137 5 70 19 71
133 6 58 19 70
129 9 65 23 69
136 10 58 21 69
137 12 39 20 68
134 12 36 21 67
129 11 38 22 66
130 10 38 22 66
134 9 39 22 65
128 10 35 17 64
132 11 49 18 63
132 11 75 19 62
132 10 69 14 62
135 10 77 18 61
128 10 81 21 60
135 10 81 21 59
136 10 82 20 59
133 10 82 20 58
135 10 79 20 57
131 8 76 19 56
132 6 76 20 55
136 6 57 18 55
132 5 51 18 54
135 5 52 17 53
133 4 54 15 52
132 5 54 15 52
136 5 59 17 51
134 7 59 17 50
133 7 60 18 49
134 7 69 19 49
133 7 73 16 48
139 6 65 15 47
135 6 61 15 47
130 7 60 15 46
132 7 59 16 45
127 7 59 16 44
129 8 48 10 44
123 9 44 11 43
131 9 44 10 43
132 9 37 11 42
123 10 25 11 41
125 9 16 8 41
124 11 18 9 40
131 8 19 9 39
136 8 17 9 39
131 10 17 10 38
138 11 18 10 37
138 11 18 10 37
126 11 21 9 36
135 13 30 12 35
133 14 51 17 35
136 16 65 18 34
137 14 65 18 34
129 12 63 16 33
133 13 65 18 32
130 13 66 18 32
120 17 64 21 31
127 17 63 20 30
128 16 57 20 30
128 18 59 22 29
128 18 51 19 29
127 17 30 19 28
131 17 16 18 28
126 16 16 18 27
126 18 15 18 27
128 19 15 20 26
131 13 15 15 26
132 13 16 15 25
127 13 16 15 25
130 15 15 15 24
131 15 15 16 24
119 12 14 13 23
125 13 14 12 23
124 13 15 12 22
127 13 18 16 22
128 14 19 17 22
124 14 18 18 21
127 14 19 18 21
126 15 19 18 21
118 11 17 17 20
124 8 15 15 20
123 4 10 12 20
123 4 9 11 19
123 4 9 10 19
116 4 7 10 19
124 7 7 11 18
122 9 8 11 18
120 9 8 11 18
124 9 7 12 18
118 15 10 12 17
122 15 10 10 17
121 24 12 12 17
118 24 12 11 17
123 24 12 11 17
120 25 12 12 16
121 24 11 13 16
121 23 10 15 16
123 22 20 29 16
125 20 20 30 16
124 19 26 30 16
128 19 28 30 16
130 11 27 30 15
126 10 28 30 15
130 10 28 30 15
128 10 28 30 15
127 8 29 28 15
130 8 29 25 15
124 7 22 14 15
131 8 22 7 15
130 9 19 8 15
125 7 16 7 14
129 8 16 8 14
126 8 15 9 14
129 8 15 12 14
131 12 14 12 14
127 12 12 13 13
134 13 16 18 13
130 15 16 18 13
125 16 16 18 13
128 15 18 19 13
122 16 20 19 12
130 15 20 18 12
128 16 21 19 12
125 16 21 17 12
128 14 21 18 11
124 14 19 15 11
126 13 15 10 11
126 11 16 10 11
130 7 16 11 10
142 11 14 9 10
140 13 13 14 10
140 13 12 15 10
142 12 17 19 9
139 12 17 18 9
144 12 17 19 9
141 11 18 20 9
142 12 17 20 9
146 14 21 21 8
139 13 20 20 8
134 13 21 21 8
132 12 22 20 8
132 13 23 18 8
136 13 15 13 7
133 14 18 14 7
136 14 18 14 7
136 16 18 13 7
132 14 16 13 7
136 14 15 12 7
132 14 15 13 6
142 19 17 14 6
145 18 16 14 6
140 17 15 14 6
146 17 15 13 6
143 18 18 13 6
140 20 17 14 6
143 17 15 12 6
138 17 16 12 6
142 17 17 13 6
141 17 18 12 6
129 13 16 8 6
133 14 18 8 6
128 14 20 8 6
126 13 21 8 6
128 11 14 6 6
126 7 16 5 6
132 7 20 7 6
128 7 26 6 6
128 7 39 6 6
131 7 40 6 6
128 6 44 8 6
131 7 41 9 6
129 5 36 9 6
129 5 33 10 6
133 7 27 13 6
130 8 36 13 6
133 8 78 14 6
133 7 116 16 6
130 7 117 16 6
133 8 114 16 7
130 8 107 19 7
130 8 105 20 7
132 8 105 20 7
128 9 104 20 8
132 8 107 17 8
127 7 112 17 8
128 6 110 19 9
131 6 79 20 9
125 5 57 21 9
129 5 68 27 10
129 6 63 25 10
127 6 63 24 11
133 6 71 25 11
127 6 70 24 12
127 7 77 26 12
127 7 83 26 12
125 11 85 25 13
127 11 81 24 13
122 15 81 28 14
131 24 83 26 15
133 23 113 35 15
126 21 121 35 16
130 19 100 31 16
129 20 92 29 17
138 26 98 35 17
138 37 108 42 18
128 42 138 62 19
139 44 143 66 20
139 42 146 64 20
125 31 143 62 21
132 27 115 52 22
133 22 78 45 22
131 18 82 42 23
131 16 78 37 24
123 17 77 37 25
133 14 78 37 26
132 16 61 23 27
129 14 60 20 27
131 13 55 18 28
128 12 60 18 29
134 14 84 20 30
131 14 88 21 31
134 16 95 24 32
135 17 107 24 33
129 18 112 26 33
137 19 109 24 34
136 27 110 27 35
129 27 116 32 36
138 27 118 32 37
136 30 135 42 38
144 35 125 40 39
144 43 119 42 40
138 44 126 42 41
144 43 122 44 42
143 46 121 43 43
141 46 121 44 44
144 40 123 41 45
143 38 113 33 46
143 37 132 35 47
142 37 121 31 48
130 32 120 32 49
138 26 136 40 49
135 23 128 41 50
138 23 139 43 51
138 24 138 43 52
130 26 137 41 53
138 32 132 40 54
134 35 150 42 55
136 35 150 54 56
138 35 145 54 57
132 35 155 55 58
138 29 146 51 59
136 25 139 50 60
128 17 118 44 61
143 19 123 45 62
150 18 125 46 63
141 14 127 46 64
138 8 133 50 65
131 8 103 31 65
153 9 110 31 66
159 8 151 45 67
153 8 148 44 68
158 10 166 46 69
166 12 166 48 70
154 13 173 47 71
134 12 173 49 72
138 12 173 49 73
145 12 168 45 73
147 13 161 45 74
139 13 156 43 75
132 13 124 27 76
133 12 124 36 77
135 11 101 34 78
123 8 99 36 78
133 6 98 37 79
133 8 103 37 80
129 9 104 37 81
135 10 94 37 82
132 9 86 37 83
135 12 90 40 83
141 11 87 43 84
142 11 112 38 85
142 13 131 43 86
138 13 125 39 86
137 14 123 40 87
142 14 125 43 88
138 14 123 44 89
139 11 161 52 89
138 12 205 62 90
132 11 208 60 91
137 11 228 57 91
131 10 220 57 92
139 10 227 56 93
139 9 229 53 94
133 9 234 59 94
139 9 232 55 95
138 9 230 55 96
132 10 216 55 96
133 8 178 44 97
128 9 206 48 98
133 8 182 49 98
130 9 196 57 99
126 9 177 59 99
131 8 168 60 100
127 9 176 62 101
129 9 194 62 101
128 8 209 59 102
132 10 204 55 102
142 15 281 78 103
139 15 261 76 104
133 15 271 84 104
133 15 263 79 105
129 15 254 74 105
135 15 257 74 106
131 16 267 73 107
133 16 263 73 107
136 18 280 80 108
129 17 282 80 108
128 14 205 70 109
127 14 205 71 109
130 14 214 65 110
132 14 241 69 110
125 14 246 72 111
131 14 249 72 111
132 14 221 72 112
132 16 207 74 112
136 13 189 77 113
133 13 196 76 113
138 12 191 68 114
138 11 205 65 114
129 12 187 64 115
145 13 153 59 115
145 12 151 57 116
136 12 146 59 116
141 12 136 53 117
136 7 135 45 117
136 10 156 40 118
135 11 170 40 118
133 12 163 37 119
141 12 159 45 119
139 13 167 44 119
134 17 208 60 120
135 18 204 62 120
136 20 252 74 121
137 20 271 75 121
133 21 270 75 121
142 21 268 74 122
143 21 258 72 122
136 21 263 72 122
144 21 272 74 123
142 19 279 77 123
142 16 226 59 123
149 15 218 59 123
144 12 182 45 124
148 11 169 42 124
146 9 169 41 124
139 10 162 41 124
147 10 152 40 125
145 10 107 33 125
145 10 102 32 125
147 10 77 27 125
141 11 78 28 125
150 11 69 25 125
146 12 92 28 125
144 13 73 33 125
151 12 82 32 125
147 13 91 32 125
149 12 89 27 125
145 9 86 26 125
142 9 86 25 125
145 8 88 24 125
140 9 88 24 125
138 9 88 23 125
139 10 69 22 125
139 11 56 16 125
138 10 49 15 125
136 9 35 15 125
138 10 31 16 125
139 10 30 14 124
142 10 30 13 124
145 9 30 13 124
143 7 31 17 124
144 5 31 17 124
148 5 31 18 124
142 4 68 20 123
147 4 73 21 123
146 9 99 30 123
150 9 111 34 123
155 12 113 38 122
145 12 110 35 122
153 12 107 34 121
153 12 108 34 121
143 12 105 37 121
152 13 102 38 120
149 13 94 37 120
151 13 92 37 120
153 12 63 31 119
141 10 34 25 119
148 9 28 20 118
146 8 24 19 118
140 9 24 19 117
144 9 42 21 117
140 10 43 20 117
137 11 42 26 116
137 12 57 28 115
133 11 61 25 115
137 9 60 22 114
133 8 60 22 114
133 7 61 21 113
136 6 63 24 113
133 6 64 27 112
137 7 46 26 112
134 7 39 26 111
142 6 38 17 111
146 4 36 16 110
138 4 39 17 110
140 4 40 16 109
140 4 41 17 108
136 5 42 17 108
139 6 39 15 107
132 6 25 10 107
138 6 21 10 106
137 6 28 13 105
126 10 26 13 105
133 9 31 18 104
131 10 43 19 103
134 9 54 19 103
137 10 60 19 102
132 9 61 21 101
138 8 60 21 100
136 10 62 29 100
134 10 64 30 99
138 10 58 28 99
132 8 56 29 98
131 9 59 27 98
131 10 57 26 97
125 10 51 25 97
131 9 43 24 96
127 9 31 18 96
132 9 10 16 95
132 6 22 10 95
126 8 22 8 94
135 10 23 13 93
133 11 28 15 93
136 11 53 23 92
139 10 60 23 91
138 10 61 25 91
136 10 62 25 90
134 10 63 25 89
135 10 62 25 89
142 10 49 24 88
138 11 46 24 87
139 9 34 20 87
142 8 38 13 86
140 8 35 10 85
144 8 38 13 85
139 10 44 18 84
144 10 45 18 83
146 10 47 17 83
136 9 40 17 82
143 10 34 18 81
142 10 49 18 81
136 10 58 17 80
140 10 62 18 79
136 11 64 24 79
135 12 63 26 78
134 12 59 24 77
136 12 55 23 76
140 10 39 21 76
136 8 18 20 75
133 8 30 22 74
136 13 41 26 74
137 19 45 29 73
138 20 48 31 72
133 21 50 31 72
140 22 50 29 71
141 21 45 20 70
129 16 41 17 69
136 12 41 14 69
135 9 31 10 68
138 9 46 12 67
143 9 80 27 67
136 8 88 32 66
141 9 90 33 65
140 11 90 33 64
135 9 91 31 64
140 8 90 31 63
138 8 81 29 62
136 7 61 22 62
138 7 55 18 61
132 9 59 17 60
134 7 45 11 60
131 9 40 6 59
131 9 38 7 58
136 9 38 7 58
131 11 31 9 57
129 18 30 13 56
127 20 26 13 56
134 25 28 18 55
135 28 39 20 54
125 29 42 22 54
129 27 44 21 53
131 22 55 18 52
129 21 55 19 52
131 21 78 22 51
127 21 99 25 50
132 23 95 26 49
137 24 94 26 49
131 21 96 24 48
138 17 96 21 48
138 9 98 15 47
133 7 98 12 46
141 8 86 14 46
134 8 87 14 45
139 8 76 14 45
139 9 39 14 44
138 9 21 15 43
140 10 23 16 43
130 11 23 16 42
131 11 24 17 42
132 11 22 17 41
131 11 11 17 40
133 6 25 8 40
128 6 37 9 39
126 7 39 10 39
130 8 49 14 38
124 11 70 16 37
130 11 76 15 37
128 11 76 15 36
126 10 77 14 36
131 10 78 14 35
127 10 80 14 35
131 11 74 15 34
131 8 66 12 33
126 8 62 12 33
131 9 61 12 32
130 9 44 11 32
126 9 34 11 31
129 10 34 11 31
131 10 32 11 30
133 11 32 13 30
131 14 19 14 29
126 13 12 15 29
133 17 13 18 28
132 17 13 18 28
136 17 15 19 28
134 18 18 19 27
132 20 20 20 27
132 19 20 19 26
124 20 20 20 26
128 19 19 19 25
129 18 18 18 25
130 18 18 17 24
129 12 11 11 24
123 12 9 7 24
123 12 13 11 23
125 11 12 10 23
121 11 13 10 22
127 8 11 11 22
126 18 20 15 22
122 18 20 15 21
124 18 20 15 21
115 18 22 16 20
120 16 21 17 20
119 16 21 20 20
114 16 17 17 19
118 15 16 16 19
114 16 18 17 19
117 16 19 17 18
117 10 14 15 18
114 10 14 15 18
118 10 15 16 17
116 10 13 16 17
119 11 13 17 17
128 18 16 15 17
125 18 16 15 16
130 18 15 16 16
129 18 15 15 16
125 19 15 15 16
131 19 16 15 15
126 18 19 13 15
130 18 22 14 15
131 18 22 14 15
128 17 21 13 15
128 10 17 9 14
123 10 17 10 14
122 11 17 10 14
123 12 17 11 14
121 12 15 9 14
125 12 15 10 13
123 14 13 10 13
122 14 11 10 13
125 14 12 12 13
120 14 12 13 13
123 14 11 14 13
121 13 9 14 12
123 11 8 14 12
129 10 11 16 12
124 11 13 16 12
123 11 14 16 12
124 9 14 16 12
122 9 17 16 11
129 9 17 14 11
124 8 17 11 11
122 8 17 11 11
125 6 17 16 10
122 7 17 16 10
125 7 16 16 10
123 11 16 17 10
126 10 17 16 9
130 10 17 17 9
126 13 13 15 9
128 13 11 14 9
129 14 11 14 9
130 14 11 12 9
132 16 12 9 8
126 15 13 11 8
128 15 13 9 8
130 11 10 8 8
121 10 8 8 8
126 10 7 8 8
122 9 7 8 7
126 11 11 9 7
130 11 11 9 7
124 11 11 9 7
130 10 10 8 7
128 11 10 7 7
130 11 17 8 7
135 12 23 9 7
133 11 22 9 7
137 11 22 9 7
137 11 21 8 7
135 11 21 8 7
139 9 31 11 7
135 9 48 11 7
138 9 53 11 7
140 9 53 12 7
135 7 54 11 7
138 7 49 11 8
135 7 47 11 8
133 7 47 12 8
137 7 60 17 8
130 4 67 17 8
134 4 65 14 8
133 5 75 29 8
127 4 71 29 9
133 4 78 29 9
128 5 86 29 9
132 5 94 30 9
133 4 117 38 10
128 4 130 40 10
132 4 123 35 10
128 6 118 35 11
130 7 120 35 11
132 6 123 32 12
127 6 144 37 12
129 7 166 41 13
127 7 171 42 13
121 7 166 42 14
125 7 180 41 14
124 7 185 41 15
127 6 195 41 16
126 6 200 41 16
122 8 202 42 17
124 8 197 40 18
120 10 184 36 18
126 9 150 26 19
127 10 125 22 20
122 10 128 22 21
125 9 126 19 21
121 11 112 14 22
120 12 94 16 23
124 13 78 16 24
117 13 59 15 25
120 13 71 16 25
119 12 118 16 26
114 12 153 22 27
117 11 153 26 28
116 17 164 36 29
113 20 174 41 30
115 23 175 45 31
118 25 177 43 31
117 26 179 43 32
112 25 180 41 33
119 23 179 41 34
121 21 155 37 35
117 15 105 25 36
125 12 103 26 37
122 11 96 22 38
129 11 80 16 38
130 13 80 10 39
118 16 90 14 40
129 19 109 24 41
129 20 108 24 42
124 20 108 21 43
126 22 110 21 44
119 24 122 21 45
128 27 124 22 46
128 29 143 33 46
123 30 171 41 47
130 29 169 41 48
129 27 172 40 49
128 23 157 32 50
129 23 156 32 51
126 25 174 42 52
133 26 178 44 53
133 25 161 44 54
125 21 153 44 55
133 14 143 38 56
131 9 112 36 57
126 14 108 37 57
137 17 90 33 58
165 17 81 31 59
163 17 113 34 60
161 16 105 32 61
157 16 100 33 62
172 13 108 44 63
177 13 135 52 64
176 9 139 52 65
174 13 166 54 66
188 14 191 62 67
178 14 190 62 68
131 14 207 64 69
142 13 199 63 70
143 12 206 64 70
157 13 205 63 71
151 13 211 60 72
139 10 195 53 73
149 10 197 54 74
149 9 183 50 75
134 8 159 41 76
141 9 159 41 77
139 13 131 37 78
131 12 156 44 79
132 12 150 44 79
131 13 155 45 80
137 11 144 40 81
134 9 148 47 82
134 9 158 55 83
137 9 168 67 84
131 9 165 69 85
137 9 171 72 85
136 7 172 72 86
133 8 156 67 87
138 9 167 70 88
132 11 174 71 89
130 11 181 72 89
133 12 174 66 90
128 14 154 54 91
133 13 135 42 91
128 14 150 56 92
127 14 147 57 93
131 15 161 62 94
130 19 158 65 94
129 20 137 60 95
127 23 120 61 96
136 28 131 69 97
134 26 133 69 97
128 24 145 72 98
132 22 150 71 99
134 19 143 55 99
129 15 138 50 100
134 15 130 52 100
129 15 131 51 101
136 16 133 49 102
137 16 153 52 102
127 13 141 44 103
136 13 153 47 104
134 14 148 53 104
134 14 146 53 105
134 17 137 53 105
130 17 138 58 106
133 16 166 63 107
131 15 169 63 107
130 16 195 70 108
132 16 184 69 108
130 14 200 73 109
132 14 182 69 109
132 13 190 65 110
130 12 191 69 110
145 12 187 68 111
141 12 184 62 111
139 13 158 54 112
140 12 146 54 112
134 13 117 45 113
143 14 132 55 113
139 15 115 50 114
136 15 116 50 114
143 13 102 47 115
142 12 109 44 115
132 11 116 46 116
130 11 116 46 116
135 10 114 43 116
141 10 106 39 117
136 7 101 36 117
136 8 87 28 117
137 7 82 26 118
138 10 77 24 118
138 10 84 23 118
132 9 72 20 118
145 9 59 12 118
145 8 51 11 119
132 6 55 8 119
139 7 63 6 119
138 8 65 15 119
136 8 65 16 119
142 8 60 16 119
139 7 60 17 119
141 6 51 22 119
140 6 55 23 119
133 5 53 23 119
141 6 54 24 119
138 8 52 24 119
139 8 59 27 119
142 8 89 24 119
138 8 90 23 118
139 9 101 22 118
134 9 108 22 118
137 9 106 19 118
141 9 106 17 118
135 9 105 17 117
140 9 104 15 117
139 8 105 15 117
147 12 100 12 117
150 11 66 13 116
143 11 66 13 116
148 10 52 12 116
149 10 30 12 116
139 8 31 10 115
146 8 35 12 115
145 8 59 23 114
143 7 59 22 114
144 10 55 22 114
127 9 56 22 113
139 9 54 19 113
139 11 61 22 112
131 12 64 28 112
140 13 57 29 111
144 14 59 29 111
138 12 60 29 110
135 10 50 20 110
132 8 49 18 109
140 10 49 18 109
140 10 45 17 108
137 11 44 14 108
141 12 44 15 107
143 12 43 13 107
140 11 39 16 106
131 8 37 20 106
137 6 43 19 105
140 8 42 22 104
138 9 67 29 104
140 10 69 31 103
137 9 69 31 102
136 12 69 33 102
139 12 70 34 101
135 10 69 35 101
138 8 65 34 100
138 8 67 33 100
134 7 67 33 99
141 7 68 31 99
134 7 45 24 98
137 8 34 17 97
139 8 19 14 97
135 6 26 14 96
138 6 21 10 96
134 6 21 11 95
136 6 27 14 94
139 6 31 14 94
136 10 41 15 93
137 9 45 14 92
134 9 43 12 91
133 9 40 11 91
139 10 39 12 90
137 11 42 15 89
134 11 45 16 89
136 11 47 17 88
132 11 51 15 87
135 11 52 13 87
130 5 47 12 86
131 4 42 10 85
134 5 34 8 85
128 7 19 9 84
131 8 18 9 83
127 8 17 11 83
135 10 22 17 82
136 9 29 19 81
131 8 36 18 80
137 8 35 17 80
135 8 40 18 79
134 8 40 17 78
141 9 40 17 77
137 9 41 19 76
139 8 34 19 76
140 8 33 19 75
135 7 33 17 74
139 9 37 15 73
135 9 40 15 73
140 9 40 14 72
141 10 37 12 71
131 8 37 12 70
138 8 37 11 70
137 8 36 7 69
134 10 42 9 68
137 16 43 18 67
130 23 40 24 67
143 27 40 25 66
143 31 53 26 65
129 30 56 25 65
141 29 62 23 64
142 26 66 21 63
135 22 66 20 62
135 19 68 18 62
133 20 67 18 61
140 22 56 17 60
139 23 51 15 59
132 21 50 13 59
141 15 46 12 58
147 14 45 11 57
140 11 41 12 57
137 8 36 14 56
138 8 36 16 55
142 8 31 16 55
134 9 26 16 54
134 12 26 15 53
136 14 14 17 52
136 17 14 18 52
135 19 14 20 51
125 20 14 21 50
137 18 14 20 49
136 15 14 16 49
122 9 24 11 48
127 7 24 9 47
126 7 33 13 46
131 10 43 14 45
132 10 43 14 44
126 9 44 14 44
138 12 50 18 43
137 11 58 19 42
124 10 63 19 41
132 9 61 19 40
133 9 52 15 39
132 10 50 15 39
132 10 51 15 38
127 10 48 16 37
131 11 48 15 36
127 11 44 12 36
119 9 44 12 35
127 13 37 14 34
129 12 24 13 34
128 13 23 12 33
126 16 23 12 32
131 16 23 14 32
138 16 24 14 31
132 17 17 13 31
136 16 16 12 30
137 17 19 14 30
141 17 19 14 29
140 14 17 12 28
133 14 16 12 28
140 14 17 14 27
141 12 18 15 27
131 12 15 14 26
131 13 15 14 26
129 13 15 14 25
131 15 15 14 25
134 16 17 15 24
130 18 21 17 24
134 18 21 16 23
133 17 23 18 23
127 16 22 17 22
132 16 22 17 22
129 16 23 17 22
133 15 22 20 21
134 13 24 18 21
136 18 30 23 20
132 26 35 31 20
123 23 30 29 20
123 23 29 29 19
126 24 31 29 19
120 24 32 29 18
121 24 35 30 18
119 26 35 30 18
120 28 37 29 17
122 28 36 29 17
111 26 30 25 17
126 13 15 15 16
127 27 27 27 16
125 27 28 29 16
132 27 29 32 15
128 38 56 48 15
129 39 56 50 15
130 39 57 51 15
123 40 58 53 15
133 42 59 54 14
131 45 61 56 14
120 48 62 59 14
119 36 49 48 14
118 35 48 48 13
123 37 47 45 13
124 33 37 41 13
124 30 34 33 12
132 35 39 38 12
128 35 38 37 12
128 34 38 37 12
125 32 34 34 11
130 24 25 26 11
136 23 24 24 11
131 23 29 26 10
125 21 26 23 10
126 20 27 27 10
126 19 28 29 10
133 22 30 31 9
131 24 30 31 9
129 23 31 32 9
131 23 31 33 9
127 23 31 33 8
129 22 31 32 8
126 20 27 30 8
129 19 27 29 8
133 19 23 19 7
130 22 21 21 7
125 12 11 14 7
125 8 12 14 6
122 10 11 13 6
127 10 11 10 6
124 10 9 10 6
130 13 13 12 5
131 13 13 13 5
130 17 14 14 5
132 17 14 21 5
128 22 20 27 5
130 22 20 26 4
134 22 19 26 4
131 23 20 27 4
134 23 20 27 4
133 23 21 26 4
122 19 17 23 4
124 23 19 25 4
116 22 20 26 3
124 23 20 24 3
124 17 14 14 3
117 17 14 13 3
124 18 14 13 3
121 18 16 13 3
122 18 17 12 3
123 15 12 9 3
123 10 11 10 3
128 9 12 7 3
127 13 15 8 3
124 13 18 8 3
129 13 21 10 3
128 13 28 13 3
129 11 33 12 3
128 9 32 10 3
127 8 33 10 3
132 8 38 11 4
126 9 42 11 4
131 8 42 11 4
132 6 50 12 4
127 10 61 9 4
132 10 68 9 4
129 10 67 9 5
130 10 71 11 5
134 10 73 11 5
129 10 72 19 5
136 11 74 20 6
135 10 71 21 6
133 10 71 21 6
138 10 69 21 7
133 7 56 23 7
136 7 40 28 7
136 11 57 29 8
129 12 74 31 8
137 13 90 34 9
134 13 91 32 9
133 12 87 31 10
135 12 92 31 10
131 13 91 34 11
140 17 91 39 11
137 20 88 42 12
135 20 79 38 12
138 18 85 38 13
134 17 92 36 13
135 17 92 30 14
134 19 89 27 15
124 31 83 41 15
135 34 64 40 16
132 33 54 39 17
131 30 59 36 17
130 32 130 42 18
125 33 160 42 18
135 35 161 41 19
133 36 155 39 20
132 36 142 39 20
136 37 139 44 21
139 28 150 43 22
129 24 154 45 23
122 21 145 45 23
118 21 144 46 24
124 21 118 35 25
119 22 92 31 26
125 24 89 32 27
125 26 87 31 28
118 19 72 26 28
118 23 62 28 29
116 23 73 31 30
125 22 87 42 31
125 23 92 51 32
120 24 88 51 33
129 27 98 50 33
128 28 94 48 34
120 24 96 44 35
122 15 109 40 36
118 12 111 39 37
124 14 106 31 37
120 14 107 33 38
130 30 104 35 39
130 33 104 32 40
125 35 101 35 41
124 36 82 34 42
128 38 84 34 42
138 44 83 40 43
136 50 77 53 44
132 54 81 61 45
134 54 81 61 46
135 54 82 62 47
119 44 95 59 48
132 38 125 55 49
131 26 124 47 49
130 29 153 67 50
130 32 150 68 51
116 33 151 68 52
134 32 154 63 53
134 30 154 56 54
127 30 154 57 55
145 29 155 58 56
175 30 158 53 57
161 27 137 48 57
157 30 136 47 58
153 31 109 29 59
186 33 103 34 60
189 32 101 34 61
184 27 98 36 62
189 18 122 42 63
194 17 111 38 64
185 18 144 45 65
141 19 159 46 65
148 17 154 43 66
152 15 156 42 67
155 15 192 53 68
138 10 190 53 69
137 9 227 62 70
144 9 245 63 71
142 9 225 57 72
133 9 227 56 73
133 9 218 53 73
133 10 209 53 74
124 10 209 59 75
133 12 209 60 76
132 11 168 50 77
135 11 168 47 78
136 11 131 38 78
128 11 77 31 79
135 11 80 32 80
133 9 72 32 81
139 9 88 33 82
142 9 88 33 82
137 9 96 37 83
140 14 113 38 84
139 14 175 66 84
128 14 199 72 85
135 13 196 73 86
131 15 232 79 87
133 14 237 79 87
135 14 240 80 88
131 14 246 82 89
137 15 247 82 89
135 15 239 72 90
136 9 237 73 91
139 8 205 55 91
136 9 186 50 92
139 10 199 50 93
138 10 169 40 93
140 11 171 38 94
143 11 167 37 95
137 11 187 31 95
143 10 187 31 96
143 10 240 56 97
134 8 250 54 97
143 8 253 62 98
141 9 256 62 98
142 9 242 62 99
144 12 243 64 100
135 12 250 66 100
142 12 250 66 101
140 13 230 68 101
133 13 228 68 102
137 13 188 53 103
136 13 170 54 103
139 11 166 48 104
137 10 155 46 104
135 11 153 47 105
143 10 165 46 105
140 10 136 48 106
140 9 135 48 107
142 8 101 46 107
142 9 119 61 108
147 9 114 57 108
140 10 134 62 109
140 11 133 60 109
145 10 145 61 110
140 10 170 68 110
142 11 177 67 111
140 13 178 64 112
144 27 226 78 112
148 29 230 77 112
141 30 250 76 113
140 30 250 76 113
145 32 241 72 114
143 31 257 79 114
141 33 250 78 115
134 32 234 72 115
139 32 207 70 116
140 32 210 70 116
122 20 171 50 117
131 15 164 47 117
131 20 172 62 118
129 20 176 63 118
129 20 180 69 119
123 21 174 66 119
139 19 176 67 119
139 19 189 68 120
133 18 190 69 120
141 19 210 71 120
141 20 222 72 121
144 24 223 73 121
145 20 182 55 121
149 20 182 52 121
149 19 175 47 122
146 19 157 42 122
151 23 155 40 122
152 27 129 34 122
144 26 109 34 122
152 26 92 31 123
150 26 72 30 123
145 22 71 28 123
145 21 59 21 123
142 20 56 21 123
147 20 53 20 123
146 17 62 20 123
137 16 65 19 123
148 11 66 19 123
148 15 73 25 123
144 14 76 28 123
147 13 79 28 123
144 16 81 27 123
157 16 80 26 123
152 17 69 25 123
150 17 66 25 123
152 17 59 27 123
148 19 57 27 123
149 18 58 27 122
144 12 42 18 122
146 11 46 20 122
151 8 44 21 122
147 11 41 21 122
149 12 42 22 122
149 13 48 23 122
152 15 48 25 121
159 15 38 18 121
154 12 40 19 121
157 10 35 18 121
158 9 37 19 120
153 10 36 19 120
155 10 37 20 120
151 10 37 20 119
143 10 62 32 119
147 10 57 30 118
140 9 55 29 118
147 10 54 30 118
146 10 57 30 117
143 12 57 30 117
146 13 60 28 116
139 12 64 31 116
140 12 64 31 115
140 14 64 31 115
146 15 50 18 114
149 15 51 19 114
144 14 50 18 114
140 14 46 18 113
145 14 33 14 112
145 13 36 21 112
150 11 32 20 111
148 6 31 18 111
152 6 32 21 110
152 6 32 21 110
134 10 41 22 109
141 10 53 23 108
142 11 56 23 108
140 11 55 25 107
143 14 57 30 106
137 14 60 26 106
139 13 63 28 105
139 13 64 27 105
131 13 64 28 104
144 10 65 26 103
144 11 58 22 103
138 8 40 13 102
142 9 13 14 101
138 11 24 27 101
136 13 43 26 100
132 12 44 26 99
133 13 72 33 98
138 13 105 43 97
129 12 115 45 97
129 11 113 43 96
130 11 112 44 95
122 10 109 42 94
126 11 111 44 94
122 14 113 46 93
133 18 98 45 92
133 22 99 47 91
122 21 94 45 91
134 21 62 34 90
136 17 18 13 89
128 12 13 12 88
132 12 34 12 88
134 14 32 12 87
137 17 41 21 86
134 19 66 28 85
129 18 81 31 84
143 15 81 29 83
145 14 81 28 82
136 13 82 25 81
138 14 81 25 81
152 18 80 24 80
148 19 56 18 79
140 18 41 17 78
142 19 51 22 77
147 20 50 24 76
143 20 41 23 75
142 21 46 21 74
140 22 51 24 73
145 27 60 30 72
144 29 56 32 71
124 25 52 27 70
134 21 53 24 69
134 17 52 22 68
129 15 58 23 67
135 13 72 23 66
131 15 92 25 65
133 19 92 28 64
135 24 89 30 63
127 28 72 28 62
140 27 58 17 62
138 24 57 12 61
134 20 60 12 60
137 20 64 15 59
130 19 69 16 58
133 20 70 19 57
131 25 56 23 56
128 26 48 22 55
136 26 56 20 54
136 21 59 15 53
131 18 64 15 53
129 16 63 14 52
129 16 70 18 51
134 17 113 25 50
130 17 135 32 49
127 19 133 32 48
130 18 118 27 47
129 18 120 28 47
131 15 123 27 46
129 8 125 27 45
121 8 118 24 44
129 8 114 24 44
130 8 116 25 43
138 8 91 22 43
137 9 51 14 42
133 8 25 10 42
140 12 24 10 41
139 12 24 10 41
132 13 25 11 40
132 12 24 11 39
136 11 17 9 39
137 12 12 10 38
129 12 9 10 38
132 16 16 12 38
135 16 17 12 37
134 16 17 13 36
134 13 23 13 36
129 13 29 16 35
135 13 36 15 35
138 13 41 16 34
134 13 41 16 34
134 12 41 16 33
130 12 41 14 33
127 10 41 15 32
128 11 39 15 32
125 12 39 15 31
127 13 32 15 30
128 14 31 13 30
125 14 26 13 29
129 14 16 13 29
127 15 18 14 28
127 14 14 13 28
128 16 13 13 27
117 22 15 16 26
126 20 14 15 26
125 18 14 15 25
121 18 14 15 25
123 19 14 15 24
122 20 14 17 24
122 20 14 16 23
121 18 12 13 23
123 19 14 14 22
126 19 14 13 22
124 17 13 12 21
123 19 14 13 21
126 19 15 15 20
126 21 16 16 20
131 21 17 16 19
126 20 17 15 19
129 20 20 22 18
132 19 21 22 18
123 15 18 19 18
127 14 19 19 17
126 14 18 18 17
125 15 20 19 17
128 15 20 19 16
123 15 20 19 16
123 16 21 21 16
123 14 22 20 15
117 13 17 15 15
120 13 17 15 15
117 13 18 15 15
125 11 18 14 14
127 10 19 14 14
124 10 14 12 14
130 10 15 16 14
126 8 15 16 14
133 8 15 15 14
136 7 14 15 13
133 7 14 15 13
135 7 17 18 13
133 10 20 19 13
129 9 19 18 13
135 10 18 19 13
130 10 17 19 13
131 10 18 18 13
132 12 17 18 13
124 11 18 20 12
128 11 19 21 12
123 12 21 21 12
127 11 15 16 12
130 9 14 15 12
124 9 14 16 12
127 9 14 15 12
125 9 15 15 12
126 10 16 15 12
130 9 18 16 11
126 8 16 14 11
128 8 15 14 11
128 8 14 13 11
125 8 13 11 11
129 8 13 11 10
124 9 14 11 10
126 9 14 11 10
128 9 13 11 10
123 8 13 10 10
130 10 17 14 10
128 17 19 14 9
133 18 31 22 9
140 24 48 44 9
134 25 51 52 9
138 25 52 52 9
136 24 52 52 9
135 24 52 53 9
137 23 53 54 9
132 23 52 54 9
134 23 51 52 8
134 19 50 53 8
127 18 40 49 8
128 6 23 31 8
125 5 14 15 8
130 7 14 16 8
131 7 14 15 8
125 10 18 18 7
131 10 15 15 7
128 12 15 16 7
125 12 16 16 7
129 12 13 16 7
126 13 14 15 7
130 13 20 17 7
129 14 27 18 7
126 14 31 18 7
132 14 32 18 7
131 13 26 15 7
134 12 35 14 7
135 11 47 13 7
133 11 50 13 7
137 9 49 8 7
133 8 52 8 7
131 10 51 9 7
134 10 57 9 7
130 9 56 9 7
133 9 53 9 7
130 8 49 10 7
128 8 50 9 7
131 8 48 10 7
125 6 48 8 7
132 6 57 8 7
131 4 67 11 7
130 3 88 12 7
135 4 84 12 7
130 3 79 12 7
133 3 77 14 8
134 2 76 13 8
131 2 72 13 8
136 2 71 13 9
133 2 72 13 9
130 4 85 14 9
134 4 81 10 10
130 5 54 11 10
133 4 72 17 11
132 4 98 19 11
129 5 101 17 12
134 5 102 17 13
131 9 115 25 13
129 13 117 26 14
131 19 122 26 15
134 22 118 26 15
135 22 108 26 16
131 21 117 25 17
128 26 111 27 17
132 30 93 27 18
130 33 104 32 19
130 36 104 34 20
127 38 91 30 20
133 36 98 27 21
132 30 94 27 22
116 21 95 26 23
121 15 95 27 23
120 16 92 30 24
123 17 92 28 25
124 16 106 35 26
118 15 111 36 26
119 13 112 38 27
120 11 130 42 28
116 10 126 42 29
120 10 127 43 30
116 10 125 41 30
115 11 134 44 31
123 17 145 45 32
122 19 149 45 33
121 19 139 36 34
117 17 145 37 35
125 18 152 37 36
124 21 138 35 37
114 18 136 37 38
117 18 135 36 38
122 27 131 37 39
134 35 126 38 40
130 35 119 35 41
121 35 114 35 42
134 34 121 39 43
135 35 102 36 44
127 31 99 35 45
135 23 104 28 46
134 18 100 25 47
137 18 103 30 48
137 17 108 30 49
125 14 112 33 50
138 19 98 34 51
138 24 98 43 52
129 25 85 34 53
135 25 77 33 54
134 23 73 33 54
122 24 57 32 55
127 27 61 35 56
132 30 72 36 57
141 31 72 38 58
154 34 107 41 59
144 33 126 44 60
152 28 130 35 61
158 23 133 41 62
154 15 143 51 63
146 17 144 51 64
157 17 145 50 64
147 15 141 50 65
127 15 132 51 66
135 14 143 52 67
128 11 118 50 68
139 11 76 43 69
139 11 128 49 70
129 12 160 53 71
140 9 151 44 71
140 5 151 44 72
132 5 147 44 73
139 5 147 46 74
140 11 149 44 75
129 16 143 41 76
133 18 132 34 77
133 18 142 35 77
135 17 126 33 78
132 16 99 27 79
136 16 141 27 80
139 15 141 28 81
134 12 155 38 81
141 12 154 34 82
139 11 170 42 83
136 10 182 47 84
144 9 190 49 85
139 12 196 49 85
146 12 189 49 86
146 11 192 53 87
139 9 174 54 88
145 10 181 58 89
141 11 173 51 89
140 11 173 54 90
143 10 156 50 91
138 10 124 43 92
137 10 122 42 92
135 10 108 48 93
131 10 111 49 94
133 10 101 45 94
128 10 92 47 95
131 9 68 42 96
131 8 67 40 97
126 9 75 36 97
134 12 73 37 98
134 15 60 37 98
132 16 94 46 99
133 16 121 58 100
129 16 119 58 100
139 16 119 56 101
137 14 122 55 102
138 13 174 60 102
138 12 166 58 103
134 24 228 73 103
133 25 244 75 104
129 24 250 74 105
136 23 246 73 105
142 21 251 62 106
137 20 274 69 106
141 20 304 82 107
142 25 327 86 107
140 24 304 94 108
148 23 304 93 108
143 20 289 89 109
146 23 297 106 110
148 23 291 106 110
141 23 296 106 111
141 22 279 105 111
137 20 259 100 112
137 22 276 95 112
139 18 246 91 113
136 20 258 86 113
136 17 249 81 114
137 18 262 86 114
142 15 234 59 115
141 19 259 68 115
131 19 253 70 116
142 20 250 73 116
142 20 241 71 117
132 16 215 69 117
139 17 222 69 118
136 15 209 58 118
137 16 214 61 119
137 15 187 53 119
126 17 221 57 119
136 15 225 59 120
136 17 223 58 120
126 19 227 63 120
132 19 225 62 121
131 20 226 64 121
127 18 208 58 121
125 19 184 59 122
133 20 165 52 122
137 20 161 52 122
134 20 135 51 123
139 19 112 46 123
141 20 145 54 123
140 19 131 44 123
145 19 128 44 123
142 19 121 40 123
146 20 116 39 124
148 22 121 39 124
135 19 120 41 124
140 17 120 39 124
139 19 120 38 124
134 19 120 40 124
138 18 83 28 124
131 20 77 33 124
139 24 80 39 124
138 26 78 41 124
132 25 81 42 124
139 21 64 39 124
139 16 59 30 124
136 12 59 25 124
140 11 46 27 124
138 11 39 29 124
148 17 55 32 124
145 20 57 35 124
142 19 52 29 123
149 18 50 27 123
139 19 38 22 123
142 19 39 21 123
140 16 42 17 123
150 15 44 13 123
149 10 46 15 123
141 9 46 15 123
142 9 39 15 122
145 10 38 17 122
134 10 52 18 122
138 11 62 34 121
138 12 63 33 121
141 18 87 42 121
142 20 82 41 120
131 17 86 44 120
138 17 86 44 120
138 17 86 42 119
137 18 86 42 119
139 19 86 42 118
140 18 72 39 118
143 18 70 31 118
142 18 71 31 117
139 12 39 17 117
145 7 37 16 116
141 7 27 10 116
149 7 28 9 115
150 7 34 9 115
140 6 37 9 114
146 6 35 10 113
141 6 45 10 113
145 10 101 30 112
146 11 119 33 112
136 11 120 33 111
148 11 117 32 110
146 10 118 35 110
137 10 120 35 109
142 11 115 35 108
142 12 111 37 108
148 13 110 38 107
147 14 111 37 106
138 13 79 26 106
153 12 40 17 105
153 12 22 16 104
144 12 16 16 104
144 12 25 20 103
142 12 56 19 102
146 12 61 28 101
140 12 106 38 101
136 9 119 38 100
143 9 119 38 99
141 10 125 40 98
138 10 127 41 97
136 10 140 41 96
139 10 141 41 96
142 10 135 37 95
136 10 114 36 94
139 9 119 34 93
140 7 102 21 93
138 8 90 20 92
139 7 90 19 91
135 6 81 17 91
134 8 80 14 90
136 11 46 13 89
129 13 24 15 89
137 14 26 15 88
137 13 24 14 87
137 13 24 12 87
142 10 23 17 86
133 10 21 18 85
140 9 24 19 84
140 8 34 16 83
139 8 41 16 83
142 8 40 17 82
138 8 39 17 81
136 9 38 19 80
137 9 30 20 79
136 10 42 23 78
136 10 48 22 78
136 10 48 20 77
130 10 48 13 76
138 9 44 12 75
138 6 35 9 75
142 6 35 8 74
140 7 33 8 73
142 8 33 11 72
144 12 25 12 71
131 15 36 13 70
140 18 75 28 70
139 20 93 36 69
139 20 97 36 68
141 19 94 35 67
134 16 90 32 66
137 14 85 31 65
137 18 79 34 65
127 26 74 42 64
145 33 83 50 63
144 37 93 55 62
136 36 87 51 62
139 33 73 43 61
135 29 63 37 60
137 26 61 30 60
134 19 49 24 59
135 15 45 22 58
144 15 38 24 57
144 15 49 25 57
137 12 61 23 56
136 8 59 18 55
137 8 55 16 54
140 9 57 16 54
135 9 66 15 53
136 8 69 15 52
139 8 70 17 52
132 7 63 14 51
130 7 60 14 50
126 8 60 14 50
135 8 56 13 49
137 9 56 13 48
132 10 55 14 47
133 10 52 12 47
134 9 38 12 46
131 8 29 12 45
135 10 28 8 45
130 10 23 9 44
137 10 34 9 43
138 9 33 10 42
121 10 47 11 42
124 10 56 10 41
121 9 58 11 40
126 9 61 11 40
127 10 61 11 39
122 10 64 11 38
126 7 68 9 38
126 6 63 8 37
124 6 53 8 36
126 7 56 8 36
122 7 53 5 35
134 7 47 6 34
134 12 46 8 34
127 13 41 7 33
129 14 42 9 33
130 15 39 12 32
129 16 20 12 31
131 16 17 12 31
127 18 16 14 30
135 18 14 14 30
132 18 16 14 29
127 19 16 15 29
131 16 16 15 28
129 16 16 15 28
135 15 14 14 27
130 15 15 14 27
131 15 15 14 26
130 12 14 12 25
127 17 15 15 25
127 17 15 15 25
127 16 14 15 24
123 15 13 15 24
129 15 14 16 23
126 16 15 16 23
123 16 13 15 22
125 13 12 13 22
123 15 11 12 21
125 19 20 17 21
119 14 19 15 20
122 13 18 15 20
132 27 34 30 20
129 27 36 32 19
128 28 37 32 19
126 28 37 33 18
129 29 38 34 18
132 29 38 34 18
125 28 38 33 17
132 23 32 29 17
134 23 31 30 17
130 24 29 29 17
130 14 19 20 16
126 14 17 19 16
129 13 15 16 16
132 12 12 14 15
126 8 9 10 15
132 8 9 10 15
130 9 11 10 15
129 9 11 10 15
131 8 10 9 14
125 7 10 9 14
127 7 10 9 14
127 7 11 8 14
124 7 10 8 14
128 7 8 7 14
122 5 6 6 13
125 5 7 10 13
126 4 9 10 13
125 7 9 11 13
128 12 10 14 13
125 12 11 14 13
126 13 10 14 12
129 13 10 14 12
124 13 10 15 12
131 13 10 15 12
130 13 10 15 12
129 13 7 11 12
132 14 7 11 11
122 13 9 13 11
126 8 10 10 11
126 7 10 11 11
124 9 13 13 11
128 9 13 13 10
124 9 13 11 10
126 11 14 11 10
128 11 14 11 10
125 11 14 11 10
131 10 13 11 10
129 10 9 10 10
131 10 9 9 9
135 10 10 9 9
130 10 7 8 9
133 10 7 8 9
132 11 9 9 9
127 9 8 8 9
134 10 11 9 9
129 11 17 11 9
131 10 25 11 9
131 10 43 12 9
127 9 47 12 9
131 8 47 14 9
128 9 65 17 9
130 7 78 17 9
133 7 79 17 9
129 7 80 17 9
129 6 80 17 9
126 3 81 17 9
126 4 86 19 9
129 4 67 16 9
126 9 66 25 9
130 10 72 25 9
130 9 72 24 9
128 9 64 25 9
132 9 64 25 9
128 9 64 25 10
131 9 67 25 10
132 9 68 26 10
128 8 53 23 10
132 8 53 23 11
128 3 47 16 11
128 5 49 17 11
130 5 45 17 12
124 5 62 21 12
129 5 79 22 13
127 5 82 20 13
128 5 81 23 14
132 6 83 20 14
127 6 89 24 15
130 8 89 24 15
129 7 91 25 16
128 8 89 26 17
130 9 98 27 17
127 11 101 24 18
133 10 82 20 19
134 10 72 14 19
126 8 75 15 20
129 9 75 17 21
126 11 83 15 21
127 12 82 17 22
128 14 80 18 23
121 14 81 19 24
127 14 71 20 24
127 11 51 20 25
118 11 71 25 26
121 12 72 25 27
117 12 86 26 28
118 12 109 28 29
118 13 106 28 29
118 17 105 30 30
121 19 106 26 31
118 19 117 29 32
120 19 126 29 33
122 21 131 31 34
120 21 124 26 35
126 20 124 28 36
125 20 111 28 37
126 21 73 24 38
131 21 87 31 39
124 21 129 40 40
129 19 146 44 41
129 22 136 46 42
125 22 122 48 43
132 21 124 51 44
126 21 136 51 45
130 22 145 51 46
131 22 142 51 47
126 21 143 52 48
130 21 139 50 49
127 18 116 45 49
130 18 84 44 50
132 17 76 43 51
129 20 91 44 52
133 22 90 40 53
132 24 84 40 54
132 21 78 40 55
140 21 92 42 56
156 25 95 44 57
144 28 95 43 58
144 29 93 42 59
143 29 89 33 60
167 28 88 33 61
176 25 85 32 62
169 21 87 36 63
175 13 90 37 64
179 12 89 39 65
176 14 65 34 65
153 13 53 27 66
160 9 53 25 67
153 8 46 26 68
145 9 51 26 69
135 8 49 27 70
127 7 69 26 71
143 6 69 24 72
143 6 68 24 73
127 7 86 34 74
136 6 95 40 75
137 7 99 45 75
132 7 100 45 76
138 9 107 45 77
135 8 108 48 78
138 11 177 63 79
139 11 193 66 80
129 11 200 68 81
133 11 207 79 82
132 11 198 76 83
131 11 195 73 83
133 11 225 77 84
127 11 232 79 85
132 10 226 79 86
131 10 233 78 87
125 8 193 62 87
137 12 175 51 88
135 12 175 51 89
134 12 203 47 90
135 10 222 56 90
135 9 222 56 91
137 9 191 44 92
132 10 178 35 93
136 11 175 35 93
138 12 165 33 94
134 13 168 34 95
134 10 134 33 95
132 11 152 40 96
142 18 127 38 97
140 25 130 27 97
131 25 141 27 98
143 25 146 26 98
143 26 211 40 99
135 25 213 48 99
140 20 253 54 100
137 21 266 59 101
137 18 269 62 101
138 18 255 57 102
130 17 256 58 102
138 13 244 58 103
136 14 273 81 103
126 13 272 81 104
129 17 266 103 104
128 21 266 104 105
131 22 247 102 105
129 21 229 101 106
127 22 230 100 106
131 21 249 100 107
125 19 258 104 107
123 24 265 104 108
125 22 235 82 108
129 23 245 82 109
140 23 204 54 109
132 20 214 50 110
133 21 207 50 110
136 21 200 48 110
127 20 201 47 111
136 19 187 46 111
134 19 177 38 112
143 18 164 50 112
143 17 207 57 113
135 17 230 62 113
132 18 263 69 114
132 19 305 83 114
135 19 308 82 115
137 22 321 88 115
132 24 329 97 115
138 24 331 98 116
139 24 329 98 116
130 23 331 93 117
141 24 332 94 117
139 24 303 96 117
137 21 283 88 118
138 20 246 77 118
132 20 236 76 119
139 20 235 76 119
139 19 225 68 119
131 20 224 67 120
139 21 221 66 120
136 21 209 66 120
129 20 167 59 120
128 20 156 49 121
131 20 142 48 121
135 17 101 27 121
130 17 97 27 121
135 15 68 25 121
136 14 75 24 122
131 15 78 26 122
137 13 93 28 122
133 12 105 36 122
137 11 124 45 122
140 11 124 42 122
135 13 129 43 122
142 13 127 43 122
140 12 126 41 122
137 12 127 41 122
142 12 121 39 122
137 10 106 34 122
137 12 101 34 122
138 12 91 29 122
136 12 57 14 122
141 12 54 14 122
137 11 40 11 122
139 9 40 10 122
140 8 43 9 121
139 10 33 11 121
143 10 33 11 121
141 10 39 18 121
142 9 38 18 121
149 10 37 19 121
143 10 49 22 120
148 10 60 27 120
147 9 61 27 120
147 9 60 26 120
151 10 66 31 119
143 7 75 31 119
145 6 78 31 119
146 7 84 32 118
142 7 91 32 118
145 7 91 32 117
143 9 93 31 117
140 10 86 28 117
141 10 87 28 116
135 10 87 28 116
146 10 79 25 115
144 10 69 23 115
145 10 68 23 114
148 9 57 17 114
141 7 38 13 113
146 9 38 14 113
145 10 35 21 112
141 12 40 28 112
147 13 43 31 111
142 13 49 31 110
140 13 50 31 110
141 13 52 33 109
140 15 61 34 108
144 14 91 34 108
141 15 93 31 107
140 15 92 30 106
143 15 95 32 106
142 14 102 31 105
149 14 105 29 104
147 15 102 30 104
151 12 101 31 103
154 10 98 33 102
145 10 97 31 102
148 8 70 25 101
149 8 49 19 100
147 7 36 20 100
154 8 35 23 99
149 13 46 28 98
146 13 80 36 97
148 14 97 36 97
138 16 108 43 96
140 18 107 40 95
137 16 104 38 94
137 14 92 25 94
143 17 86 33 93
141 20 94 40 92
139 20 91 41 92
138 19 93 41 91
141 20 83 38 90
141 19 68 38 90
131 17 43 27 89
137 11 40 23 89
138 10 38 21 88
135 10 31 19 87
137 7 32 16 86
130 5 27 12 86
139 9 36 26 85
139 11 56 32 84
127 12 69 31 84
139 12 73 31 83
139 12 63 28 82
132 12 64 28 81
143 13 65 29 81
146 14 62 26 80
141 10 60 22 79
138 10 56 23 79
133 12 61 21 78
149 15 59 18 77
146 17 50 21 77
145 18 35 21 76
146 18 34 21 75
147 18 35 21 75
144 16 38 21 74
132 10 28 16 73
139 7 20 16 73
141 6 34 21 72
137 7 48 23 71
133 5 54 24 70
131 5 52 22 70
131 4 51 22 69
137 5 53 25 68
132 5 50 25 68
135 7 43 23 67
134 7 44 23 66
133 7 46 22 66
137 7 46 20 65
133 6 38 18 65
137 6 24 14 64
138 6 24 14 63
134 6 34 14 63
140 5 43 9 62
136 5 50 8 61
135 6 73 8 61
141 9 83 8 60
136 11 83 12 59
138 11 83 12 59
136 11 82 12 58
134 11 82 12 57
141 14 80 15 57
137 16 73 17 56
136 18 57 17 56
137 19 57 17 55
136 18 47 16 54
138 16 35 17 54
131 12 35 13 53
136 10 37 11 52
137 9 38 10 52
131 7 37 10 51
131 13 38 9 50
128 14 40 11 50
133 16 43 11 49
139 15 46 10 48
136 15 43 10 48
140 15 45 10 47
139 14 48 10 46
128 14 45 11 46
143 15 44 16 45
145 15 44 18 44
148 16 44 18 44
147 17 39 16 43
139 16 37 17 42
144 16 33 17 42
138 16 34 17 41
135 15 33 16 41
140 15 30 16 40
146 16 30 18 39
139 12 31 15 39
128 11 35 15 38
128 11 37 15 38
131 12 33 15 37
127 12 28 16 36
125 12 29 16 36
123 13 33 15 35
124 12 33 14 35
127 11 31 13 34
121 11 34 13 33
124 12 34 13 33
123 14 30 10 32
120 14 28 9 32
126 13 37 9 31
123 14 39 9 30
128 16 41 12 30
129 18 40 12 29
124 18 42 14 29
125 20 45 17 28
121 20 42 18 28
124 21 42 19 27
129 20 42 19 27
123 20 41 19 26
131 21 34 20 25
132 19 27 19 25
121 15 17 14 25
125 12 13 12 24
122 12 14 12 24
125 12 13 11 23
125 12 13 11 23
121 11 12 11 22
124 10 12 10 22
122 10 14 10 21
122 12 13 9 21
125 12 12 8 21
123 11 13 8 20
132 10 15 12 20
131 12 19 22 19
134 15 20 29 19
136 17 21 31 19
128 20 20 30 18
134 21 20 30 18
134 21 21 30 18
124 16 20 28 17
133 18 23 30 17
131 16 22 29 17
131 18 19 25 17
131 25 26 33 16
121 26 26 31 16
128 26 26 30 16
127 24 26 30 16
125 24 26 30 15
129 24 26 29 15
128 24 26 29 15
128 19 22 24 15
126 17 25 29 15
120 17 29 28 15
128 12 24 29 14
127 11 25 28 14
127 11 24 28 14
127 11 24 28 14
125 10 24 28 14
127 10 24 28 13
124 10 24 28 13
122 10 24 21 13
123 6 17 15 13
121 6 8 14 13
121 7 10 11 12
119 7 10 13 12
122 12 9 13 12
127 12 10 13 12
119 12 10 13 12
125 12 8 13 11
124 14 14 13 11
123 16 14 13 11
127 16 12 13 11
123 15 11 13 11
130 16 19 18 10
132 16 19 16 10
126 11 20 15 10
132 12 20 15 10
130 12 21 14 9
128 12 22 14 9
131 7 17 13 9
124 9 16 14 9
131 11 15 15 8
129 12 15 16 8
124 11 11 11 8
129 11 12 10 8
125 12 12 9 7
124 11 12 10 7
124 10 10 11 7
119 16 12 11 7
123 15 12 11 7
121 15 10 11 6
121 14 10 10 6
123 14 11 9 6
118 14 12 8 6
118 14 11 9 6
116 14 12 10 6
119 15 12 9 5
121 15 12 9 5
119 11 12 11 5
121 11 20 12 5
121 12 25 12 5
117 10 25 12 5
121 10 26 12 5
120 9 26 12 5
124 8 26 11 5
124 10 32 11 5
122 11 45 12 5
128 10 47 12 5
125 10 48 13 5
128 10 46 11 5
130 9 40 10 5
126 9 40 10 5
131 9 40 10 5
128 10 43 11 5
129 10 48 12 5
133 7 46 12 5
126 6 41 11 5
128 6 43 15 5
128 6 71 16 6
124 6 73 17 6
130 6 78 22 6
126 6 90 25 6
126 5 91 30 7
126 4 92 30 7
120 4 96 30 7
125 5 105 30 8
122 5 107 30 8
123 5 103 29 9
126 5 80 27 9
119 5 100 31 10
122 5 129 34 10
121 5 126 32 11
124 7 125 27 12
126 8 123 25 12
121 8 115 24 13
126 9 94 23 14
126 12 105 30 14
120 12 118 33 15
131 20 119 35 16
130 18 111 31 16
130 17 87 25 17
130 18 85 24 18
123 20 85 27 18
133 21 88 28 19
130 23 89 27 20
124 24 88 27 20
129 23 75 24 21
129 23 68 22 22
121 10 68 18 22
120 8 61 18 23
123 9 58 18 24
124 9 38 18 25
121 10 33 19 25
121 10 54 22 26
124 14 68 29 27
128 16 67 29 28
129 17 82 29 29
124 18 95 29 29
136 24 97 32 30
136 24 97 32 31
126 20 97 32 32
131 16 97 30 33
130 20 98 30 33
140 26 93 41 34
139 31 73 38 35
128 34 91 38 35
136 35 87 38 36
136 33 71 39 37
125 28 67 38 38
129 27 72 45 38
126 25 72 43 39
130 26 105 43 40
133 26 150 50 41
118 24 148 45 41
132 23 175 46 42
134 22 189 51 43
120 26 188 50 44
128 25 188 50 45
133 25 199 50 45
130 25 202 48 46
127 27 203 49 47
121 27 192 48 48
132 23 149 32 49
138 21 165 36 49
133 21 165 37 50
135 20 139 30 51
151 11 190 43 52
144 9 194 42 53
124 9 200 51 54
133 9 195 52 54
134 5 198 53 55
129 6 202 55 56
131 7 201 55 57
127 9 192 53 58
134 11 177 51 58
133 11 184 54 59
117 13 146 42 60
129 12 141 43 61
128 13 110 30 62
125 12 86 22 63
129 10 93 24 64
132 10 120 34 64
129 10 120 35 65
129 9 129 38 66
127 10 126 39 67
137 11 121 40 68
135 10 122 41 68
136 13 143 46 69
138 13 150 45 70
133 12 153 46 71
138 11 158 46 72
134 10 145 41 72
135 8 154 43 73
138 8 145 40 74
132 8 142 39 75
134 8 135 37 75
135 8 125 37 76
136 5 109 31 77
141 4 104 29 78
135 4 101 26 78
138 6 116 26 79
140 8 107 25 80
132 7 97 22 81
138 7 101 23 81
136 10 102 27 82
139 9 120 27 83
140 9 120 29 84
135 8 132 27 84
139 8 140 31 85
138 8 160 39 86
138 10 185 48 86
144 10 185 50 87
141 10 218 58 88
145 11 225 62 89
145 8 239 64 89
141 11 233 63 90
145 11 242 62 91
137 11 236 62 91
146 14 239 64 92
147 15 233 63 93
140 15 204 58 93
151 15 210 58 94
149 14 189 55 94
147 10 186 57 95
148 15 162 53 96
142 15 175 57 97
152 15 162 58 97
151 16 166 60 98
142 13 140 53 98
149 13 189 60 99
146 18 210 63 100
143 17 210 65 100
142 17 218 66 101
140 17 207 59 102
151 20 217 60 102
150 22 216 59 103
142 21 242 65 103
144 19 244 63 104
141 18 281 70 105
141 18 260 64 105
139 18 255 63 106
136 19 266 69 106
142 20 257 65 107
136 20 286 72 108
137 16 278 70 108
134 11 276 70 109
138 12 253 63 109
143 14 250 63 110
139 13 219 55 110
145 15 214 63 111
147 15 194 64 111
142 18 156 54 112
148 17 160 56 112
147 26 171 67 113
138 29 169 73 113
141 30 208 83 114
133 33 220 88 114
142 33 204 87 115
140 33 207 89 115
139 32 202 84 116
143 32 202 81 116
138 31 204 78 117
139 30 206 78 117
137 23 154 63 118
143 15 139 49 118
148 16 100 38 118
144 12 78 32 119
139 12 82 31 119
140 12 62 17 119
134 11 60 28 120
141 11 119 33 120
138 11 135 33 120
139 11 137 33 120
143 13 135 34 120
134 10 133 33 121
137 11 132 34 121
137 10 128 33 121
140 10 118 33 121
144 10 98 34 121
137 12 106 32 121
145 17 83 29 121
146 18 59 28 121
141 18 56 29 121
145 16 57 28 121
143 15 56 28 121
146 16 54 30 121
147 16 64 36 121
140 16 82 40 121
144 16 87 41 121
143 15 83 40 120
131 7 73 36 120
138 4 69 35 120
130 6 87 37 120
139 8 87 38 120
139 8 90 34 119
139 9 93 33 119
142 9 93 26 119
136 9 91 27 119
138 10 87 25 118
138 10 87 25 118
135 10 87 25 118
137 10 90 24 117
136 10 73 24 117
136 8 72 23 117
137 9 61 21 116
127 9 40 20 116
140 9 41 21 115
140 9 42 15 115
140 8 42 15 114
145 7 48 16 114
142 8 49 17 113
146 8 47 16 113
145 8 63 16 112
138 8 68 17 112
148 8 65 17 111
151 7 63 15 110
145 5 68 17 110
146 6 65 17 109
145 7 65 17 109
152 13 66 26 108
150 16 67 26 107
148 16 67 26 107
156 15 51 26 106
155 15 39 25 105
156 13 59 30 105
149 10 62 30 104
150 9 76 36 103
155 12 117 46 102
151 16 135 51 102
145 18 131 48 101
145 16 132 47 100
147 15 135 47 99
157 16 135 47 99
149 17 137 50 98
150 16 121 43 97
153 16 114 39 97
148 16 114 38 96
149 15 84 30 95
144 14 45 21 95
151 11 23 19 94
153 10 28 19 93
144 9 35 24 92
141 10 63 30 92
141 8 69 29 91
140 8 77 29 90
145 8 79 28 89
142 8 80 28 89
142 8 116 33 88
143 8 129 33 87
140 9 121 25 86
143 10 116 26 86
140 11 122 30 85
136 9 123 28 84
140 8 125 29 83
135 7 120 29 83
137 7 118 29 82
133 7 119 29 81
137 10 83 22 81
139 11 36 16 80
130 9 21 14 80
136 8 21 13 79
136 7 21 10 78
134 7 32 12 78
138 6 34 20 77
133 7 37 20 76
133 6 36 19 75
134 4 36 18 75
131 6 47 20 74
138 7 56 20 73
134 7 52 19 73
137 7 44 17 72
139 7 44 19 71
130 8 48 19 70
137 8 51 15 70
136 8 53 14 69
138 10 55 15 68
141 11 57 15 67
133 9 51 10 67
139 11 32 7 66
139 14 18 11 65
129 18 14 13 64
139 19 16 13 64
139 19 20 14 63
138 18 19 12 62
138 15 19 12 61
132 15 27 11 60
140 15 69 15 59
138 17 96 28 58
136 18 101 33 57
139 17 99 32 57
137 15 99 33 56
138 14 98 33 55
135 10 94 31 54
131 9 93 30 53
137 10 96 30 52
133 9 98 27 51
134 8 86 27 51
134 6 53 20 50
130 6 25 13 49
135 7 12 11 48
132 6 20 10 47
130 5 29 9 46
131 6 31 10 46
127 7 35 11 45
133 7 42 10 44
131 8 62 10 43
131 8 64 10 42
133 8 58 11 41
125 8 54 10 41
133 9 46 10 40
133 10 46 12 39
127 10 47 12 38
135 9 48 11 37
135 10 49 11 37
125 9 49 10 36
125 9 27 10 35
116 9 11 10 34
138 9 8 8 34
146 10 6 8 33
132 10 6 7 32
138 8 4 6 32
145 12 8 10 31
147 16 12 13 30
138 16 14 13 30
140 17 15 14 29
144 19 17 15 28
142 19 17 15 28
133 20 19 16 27
127 20 19 19 27
139 20 20 20 26
139 22 25 28 25
126 21 23 28 25
124 18 23 27 24
126 16 22 26 23
121 17 23 29 23
128 18 25 37 22
126 18 24 36 22
129 17 24 36 21
132 18 24 34 20
122 17 23 34 20
121 15 18 24 19
118 15 19 27 19
112 18 19 27 18
121 22 20 31 18
122 21 19 29 17
119 18 16 20 17
118 17 16 20 16
117 17 16 19 16
124 17 14 17 15
123 23 28 27 15
126 23 27 25 15
128 23 29 29 14
128 22 28 29 14
137 25 30 28 14
134 25 37 30 13
135 25 37 31 13
138 25 38 31 13
132 25 38 30 12
135 26 39 31 12
130 22 30 25 12
127 23 31 25 11
133 24 29 22 11
132 26 31 22 11
125 17 29 20 10
124 11 18 12 10
125 8 14 12 10
125 8 19 21 9
123 9 22 22 9
124 10 22 22 9
126 10 25 25 9
124 10 25 26 8
125 12 26 26 8
120 16 28 30 8
121 18 30 32 8
123 18 30 32 7
116 18 30 32 7
125 16 19 22 7
123 17 19 22 7
119 15 21 20 7
126 14 21 20 6
122 13 22 22 6
128 15 23 26 6
129 13 23 24 6
124 11 22 23 6
131 11 22 22 6
127 11 21 22 5
126 8 18 15 5
129 8 18 15 5
127 8 15 15 5
130 7 15 14 5
128 8 14 12 5
128 7 13 6 5
131 7 7 8 4
125 8 7 8 4
129 9 10 9 4
130 10 10 9 4
127 10 12 9 4
130 9 22 10 4
123 9 23 11 4
126 10 24 12 4
127 10 34 13 4
119 12 42 16 4
129 14 42 14 4
128 14 43 14 4
124 12 43 13 4
127 9 46 12 4
126 8 50 12 4
132 9 42 10 4
130 10 52 14 4
129 10 54 14 4
135 10 52 14 4
133 10 52 13 4
131 9 55 14 4
131 9 87 18 4
129 10 111 18 4
130 10 109 18 4
123 6 103 20 4
126 6 109 20 5
128 7 122 20 5
124 7 125 20 5
127 6 125 21 5
124 6 121 23 6
124 6 122 21 6
126 5 102 21 6
122 5 67 21 7
127 4 69 21 7
126 4 71 19 7
124 5 70 19 8
127 4 67 18 8
121 3 65 17 9
124 3 63 15 9
124 5 70 19 10
119 5 74 19 10
125 4 80 15 11
122 11 135 25 11
121 11 150 24 12
127 14 150 25 13
124 16 157 25 13
127 15 157 25 14
124 14 156 24 15
124 14 157 26 15
129 15 150 22 16
126 17 148 24 17
124 19 154 23 17
125 18 111 18 18
125 19 90 23 19
126 16 105 23 19
120 14 99 24 20
123 13 96 25 21
123 12 100 26 22
118 12 105 25 22
127 15 105 27 23
125 18 109 31 24
128 18 142 41 25
131 18 144 41 26
129 18 140 38 27
131 18 152 40 28
127 13 153 38 29
125 11 154 41 30
133 16 170 41 31
132 18 167 36 32
127 18 168 39 33
126 14 175 38 34
125 11 155 31 35
127 11 153 32 36
120 11 153 31 36
127 12 131 30 37
130 11 129 30 38
129 13 135 23 39
128 13 108 21 40
124 12 95 22 41
126 11 102 23 42
128 11 97 24 43
124 11 83 21 44
135 12 80 19 45
135 11 80 19 46
135 13 80 23 47
134 22 82 30 48
125 21 78 33 49
145 21 93 36 50
146 21 91 35 51
142 20 93 36 52
142 20 93 36 53
142 22 98 41 54
146 24 98 42 54
146 25 99 42 55
133 25 101 43 56
148 22 97 48 57
145 22 95 48 58
119 20 77 45 59
125 18 125 56 60
123 15 141 58 61
137 15 145 58 62
137 16 160 56 62
127 15 165 56 63
142 17 164 56 64
144 18 163 54 65
137 14 170 47 66
138 13 177 48 67
135 14 178 49 68
137 14 136 34 69
133 14 113 33 69
131 14 140 39 70
133 15 129 39 71
128 15 126 39 72
129 13 126 39 73
125 12 134 39 73
127 13 124 43 74
132 10 118 40 75
130 10 107 39 76
132 9 121 45 77
132 10 120 46 77
132 11 126 50 78
133 11 124 47 79
128 12 123 49 80
132 14 134 52 81
134 13 141 53 81
129 10 143 52 82
135 8 140 55 83
134 5 133 55 84
128 7 108 46 84
132 7 150 47 85
128 7 149 49 86
137 8 170 49 86
136 11 189 53 87
136 10 195 50 88
140 10 181 46 89
132 11 181 45 89
135 11 184 41 90
135 11 183 41 91
137 12 183 42 91
140 12 165 45 92
136 10 173 37 93
141 10 163 56 93
143 10 150 54 94
133 10 143 55 95
141 8 136 57 95
140 9 136 58 96
135 9 137 58 97
141 9 141 57 97
138 11 148 61 98
139 11 157 59 99
138 10 123 51 99
129 10 122 37 100
136 10 141 44 101
132 9 135 39 101
129 10 190 60 102
132 11 216 60 102
134 11 215 59 103
138 13 215 65 104
132 11 224 66 104
133 11 214 67 105
139 13 218 71 105
138 13 220 71 106
143 13 211 68 106
141 14 203 71 107
140 14 181 60 107
144 13 166 62 108
134 13 162 63 108
136 12 151 57 109
135 15 145 54 109
130 15 145 54 110
130 13 140 49 110
123 15 143 54 111
124 14 114 47 111
126 11 63 34 112
127 10 89 46 112
132 23 168 61 112
130 24 169 59 113
135 24 177 60 113
137 22 172 57 114
133 22 177 56 114
142 23 188 56 114
142 21 190 53 115
130 25 213 60 115
141 25 208 59 115
134 24 208 58 116
137 17 183 49 116
137 19 211 58 117
131 19 220 69 117
140 21 243 79 117
137 23 242 83 118
137 26 256 95 118
137 35 267 113 118
136 34 285 113 118
133 35 312 114 119
133 36 310 112 119
136 36 319 111 119
136 36 293 106 120
130 36 292 100 120
133 34 286 94 120
132 32 285 87 120
127 30 271 82 121
136 15 249 50 121
137 15 227 49 121
136 15 187 47 121
136 14 189 47 122
129 14 153 41 122
136 14 161 42 122
131 14 151 41 122
134 14 122 36 122
137 14 122 36 122
131 12 79 20 122
138 14 77 22 122
135 12 74 21 123
133 12 77 20 123
136 12 77 19 123
132 13 78 19 123
135 12 72 18 123
134 11 80 23 123
129 11 82 25 123
135 11 78 24 122
132 11 77 25 122
130 10 78 24 122
131 8 78 23 122
131 9 76 27 122
139 8 68 25 122
135 8 67 25 122
139 9 63 25 121
143 10 52 21 121
139 10 45 18 121
142 10 51 21 121
141 10 52 22 120
140 10 56 23 120
153 11 55 24 120
148 15 63 28 119
147 15 62 28 119
147 14 63 27 118
142 14 67 27 118
147 13 68 26 117
144 13 81 32 117
140 15 79 35 116
142 17 81 40 116
141 23 84 45 115
137 22 81 45 115
134 19 71 43 114
137 18 73 43 114
149 18 73 44 113
148 20 70 46 112
147 20 68 48 112
147 22 57 42 111
156 21 58 41 111
157 21 65 40 110
145 16 54 32 109
155 16 65 37 109
158 15 72 41 108
153 15 79 42 107
150 15 74 42 107
144 14 73 41 106
153 15 74 39 105
154 12 80 41 105
143 10 80 40 104
153 7 70 39 103
152 7 68 39 103
140 7 67 36 102
141 6 59 24 101
136 5 36 9 101
144 7 42 27 100
145 14 55 35 99
142 17 58 37 98
148 16 56 37 98
145 16 56 36 97
142 16 62 37 96
143 18 79 42 96
138 19 81 40 95
146 17 71 36 94
143 15 72 36 93
142 15 79 38 93
144 14 80 38 92
133 13 81 37 91
142 16 77 37 91
140 19 77 40 90
135 19 77 41 89
141 17 58 32 88
137 16 37 28 88
139 17 38 28 87
139 16 40 28 86
134 17 47 30 86
143 16 46 30 85
142 17 55 31 84
136 16 76 37 83
140 12 88 36 83
141 11 87 33 82
139 11 84 32 81
136 10 87 32 81
137 10 87 31 80
139 9 83 30 79
129 7 69 24 79
134 5 67 22 78
133 6 68 22 78
128 4 56 15 77
129 6 31 7 76
124 8 12 7 76
136 10 15 9 75
137 11 17 8 74
130 11 20 8 74
140 15 23 22 73
141 19 22 23 72
132 21 48 24 72
135 18 67 25 71
134 16 78 26 70
140 15 77 26 69
138 16 78 27 69
133 16 76 27 68
138 18 76 27 67
133 19 73 28 67
134 20 67 22 66
133 18 69 19 65
135 14 65 18 65
139 10 49 17 64
133 7 19 16 64
135 5 13 15 63
136 6 28 15 62
131 6 36 13 62
135 6 37 14 61
131 7 59 14 60
132 7 80 17 60
134 7 87 17 59
127 6 86 17 58
130 6 88 17 58
128 3 89 18 57
128 4 89 18 56
130 4 81 18 56
124 4 68 18 55
133 5 70 17 54
133 6 65 18 53
130 6 46 13 53
132 6 38 11 52
129 6 48 11 51
130 6 48 14 51
132 6 58 15 50
128 7 75 16 49
144 6 76 14 49
145 7 76 14 48
134 7 76 14 47
136 7 76 14 46
129 7 76 14 46
139 7 68 13 45
139 6 54 13 44
143 9 54 12 44
144 10 52 11 43
136 10 25 8 43
129 10 22 7 42
130 11 26 6 41
135 11 32 4 41
135 12 32 4 40
134 12 31 4 40
137 12 32 4 39
137 12 32 5 39
124 11 34 8 38
131 9 33 10 38
131 10 33 10 37
125 10 33 10 37
128 9 28 10 36
121 8 17 10 36
128 8 14 11 35
128 8 17 10 35
124 8 20 11 34
128 8 20 11 34
124 10 16 11 33
124 11 15 10 33
125 11 15 9 33
125 11 15 9 32
128 11 16 10 32
125 11 14 9 31
129 10 14 9 31
134 16 16 14 30
128 16 15 13 30
131 19 17 14 29
128 17 15 13 29
128 16 13 12 29
134 16 14 12 28
130 17 14 12 28
134 18 15 13 27
134 19 15 14 27
127 18 15 13 26
127 15 15 14 26
119 17 16 17 25
124 14 13 16 25
125 15 13 16 24
120 15 14 16 24
123 16 15 16 23
119 15 15 17 23
117 14 13 15 22
121 11 11 12 22
120 11 12 13 22
124 12 12 15 21
123 12 20 22 21
120 12 20 22 20
124 11 21 25 20
120 11 22 26 20
121 11 22 26 19
122 11 22 27 19
117 10 22 27 18
121 10 22 27 18
115 10 20 25 18
117 8 19 22 17
120 7 13 18 17
120 6 13 18 17
128 11 14 16 17
126 11 10 13 16
129 11 10 13 16
132 11 10 12 16
127 11 10 10 16
132 11 10 10 15
130 11 10 10 15
128 10 10 11 15
128 15 10 12 15
122 14 10 12 15
124 13 9 12 14
125 14 9 11 14
120 13 9 11 14
124 14 9 11 14
121 14 11 22 14
121 14 30 34 14
122 14 31 34 14
121 14 31 34 14
129 11 34 38 14
127 11 35 38 14
123 9 34 40 13
126 9 37 40 13
121 9 37 40 13
125 8 39 41 13
125 9 39 33 13
123 10 25 27 13
126 11 25 27 13
123 15 25 26 13
124 14 22 19 13
126 14 22 18 13
125 17 23 16 12
127 18 17 16 12
123 17 13 14 12
126 18 12 14 12
128 18 13 14 11
121 16 9 10 11
123 17 13 13 11
121 17 16 14 11
124 22 18 18 10
126 22 20 18 10
119 21 19 17 10
128 21 19 18 10
128 21 20 20 9
118 18 19 20 9
125 10 15 20 9
123 7 14 19 9
124 7 14 20 9
125 11 14 20 9
119 10 14 20 9
127 16 18 23 8
125 16 19 24 8
122 16 19 23 8
127 14 18 20 8
126 13 16 13 8
127 13 17 13 8
125 13 17 12 8
127 11 13 11 8
130 11 12 10 8
124 8 11 8 8
125 7 11 7 8
126 7 11 7 8
123 7 10 8 8
126 7 10 8 8
123 7 10 9 8
127 9 15 11 8
129 6 34 12 8
124 7 48 12 8
132 8 54 12 8
130 8 62 13 8
129 8 73 13 8
132 9 83 13 8
126 10 87 13 8
130 10 91 15 8
129 10 94 17 8
125 8 92 19 8
130 8 85 25 8
126 8 72 26 8
126 6 60 29 8
126 6 60 32 8
122 6 56 35 8
129 6 50 42 8
126 3 51 42 8
127 4 45 43 8
129 5 39 43 9
125 4 40 44 9
129 4 39 37 9
127 4 46 36 9
125 4 60 35 10
130 4 72 37 10
126 4 70 36 11
129 5 79 30 11
128 6 89 30 12
126 6 92 28 12
130 4 92 27 13
126 4 92 15 13
130 7 94 13 14
131 9 91 13 15
123 16 90 11 15
129 16 110 12 16
127 17 114 17 17
124 16 106 17 17
126 14 108 21 18
120 13 109 21 19
125 13 120 21 19
124 17 126 21 20
119 17 125 22 20
125 19 127 21 21
126 15 121 24 22
126 14 93 23 22
126 13 79 23 23
124 13 92 31 24
127 14 119 39 25
123 16 135 43 25
129 15 126 41 26
130 15 115 39 27
122 14 112 36 28
126 14 113 36 28
123 14 121 41 29
120 15 123 43 30
120 20 129 48 30
113 23 133 47 31
126 22 120 37 32
126 20 102 26 33
117 17 99 25 33
120 18 97 29 34
117 20 93 30 35
123 22 89 28 36
122 23 96 28 37
119 23 82 25 37
124 20 90 31 38
123 19 88 30 39
123 17 88 31 40
126 13 88 28 41
124 13 88 26 41
129 13 86 26 42
128 11 91 27 43
126 9 87 28 44
127 7 129 35 45
123 9 167 45 46
132 10 154 36 46
132 10 172 41 47
129 11 184 42 48
130 11 184 42 49
124 11 189 46 50
130 11 190 46 51
130 10 187 46 52
118 9 190 47 53
174 8 158 43 54
174 9 102 31 54
169 9 96 29 55
171 13 108 35 56
165 15 114 41 57
183 17 114 44 58
182 17 109 38 59
175 17 112 38 60
185 18 122 38 61
189 18 139 41 61
127 14 140 40 62
118 14 147 41 63
119 14 157 42 64
137 15 144 40 65
140 15 128 37 66
130 14 126 45 67
132 13 139 51 67
137 13 157 60 68
132 11 156 59 69
124 10 125 55 70
133 10 131 58 71
136 6 164 60 72
132 8 157 57 73
133 6 159 58 74
132 6 157 58 74
129 8 153 49 75
134 8 149 50 76
127 10 126 39 77
133 12 111 47 78
133 16 100 50 79
130 16 99 49 79
135 16 62 47 80
132 16 60 52 81
133 15 60 52 82
136 15 60 50 83
132 13 73 51 83
144 13 67 47 84
143 13 84 46 85
137 13 84 42 86
144 9 110 41 86
140 8 140 42 87
141 8 148 43 88
139 10 188 55 89
136 10 183 53 89
142 10 188 52 90
135 10 188 51 91
133 8 206 52 92
133 7 204 58 92
130 11 225 63 93
136 14 213 65 94
132 14 211 69 94
134 14 213 67 95
136 12 240 62 96
133 11 248 62 96
142 17 259 70 97
140 24 259 71 98
134 25 239 78 98
142 25 240 76 99
142 25 222 71 100
139 22 222 68 100
137 21 187 64 101
133 19 188 66 102
142 19 113 45 102
139 19 105 44 103
140 19 84 40 103
142 15 107 46 104
139 16 107 40 105
141 16 108 42 105
137 13 108 43 106
137 13 108 41 106
141 13 119 41 107
137 14 138 41 107
142 14 137 41 108
140 13 123 39 108
131 13 123 39 109
134 12 89 28 110
133 13 87 29 110
133 12 87 28 111
133 13 90 24 111
130 12 123 32 112
136 13 128 32 112
131 13 104 44 113
128 13 108 44 113
133 13 109 52 114
137 15 107 58 114
140 15 113 59 114
135 14 138 60 115
140 17 172 82 115
141 16 171 82 116
133 17 148 79 116
144 17 159 84 117
144 17 160 79 117
136 16 162 80 117
141 16 160 73 118
135 17 161 72 118
141 17 161 72 119
141 15 142 73 119
135 11 97 54 119
149 18 96 51 120
149 19 100 54 120
139 18 90 54 120
142 20 93 53 120
142 20 89 54 121
143 20 91 54 121
138 18 80 48 121
143 19 85 55 121
146 19 77 53 122
142 19 82 51 122
144 16 92 54 122
144 14 90 51 122
142 12 68 45 122
149 11 71 46 123
145 11 72 43 123
147 11 73 43 123
149 9 73 42 123
139 6 65 29 123
146 7 67 29 123
144 7 64 26 123
147 11 50 19 123
149 11 56 16 123
153 15 68 24 123
154 19 87 44 123
151 19 116 48 123
148 19 118 50 123
157 20 122 52 123
154 20 120 51 123
161 20 117 49 123
160 20 116 49 123
160 19 118 51 123
166 19 113 50 122
156 14 99 44 122
156 10 90 31 122
157 10 54 21 122
152 11 38 15 122
159 9 30 14 122
156 9 27 13 121
156 9 23 13 121
158 8 20 13 121
146 6 19 9 121
149 6 32 16 120
146 8 32 18 120
147 8 38 18 120
155 13 40 19 119
154 11 52 18 119
149 10 53 18 118
148 11 51 18 118
140 11 48 18 117
148 11 42 18 117
144 11 38 18 116
149 11 49 11 116
151 11 52 12 115
147 12 51 11 115
145 8 51 11 114
141 9 36 11 114
141 11 31 13 113
148 11 25 13 112
151 11 33 15 112
145 11 43 15 111
144 11 42 15 110
146 9 56 15 110
150 6 81 14 109
141 7 104 16 108
146 8 104 17 107
148 7 104 22 107
144 6 105 22 106
144 5 105 23 105
138 9 99 20 104
156 12 82 17 103
155 12 78 19 103
139 16 83 22 102
145 18 75 25 101
146 19 49 27 100
149 22 44 29 99
151 22 33 22 99
144 21 34 22 98
154 21 44 23 97
154 18 95 30 96
136 12 114 46 95
146 13 187 64 94
145 15 229 73 93
145 15 232 71 93
146 15 231 70 92
140 12 231 68 91
148 10 231 68 90
145 10 229 67 90
138 10 222 64 89
143 5 181 53 88
143 7 186 51 88
143 9 148 37 87
140 9 69 15 86
142 9 28 13 86
144 9 23 12 85
135 11 20 12 85
138 11 12 9 84
139 10 22 14 83
138 10 32 24 83
142 10 32 24 82
137 9 46 26 81
138 11 46 28 81
140 10 82 33 80
133 10 105 37 79
141 11 107 37 78
140 10 106 38 78
138 9 108 40 77
142 8 110 40 76
136 8 113 38 76
141 8 115 38 75
140 9 105 35 75
136 10 103 32 74
144 13 85 27 73
144 18 49 20 73
139 19 25 19 72
141 18 27 20 72
144 18 25 18 71
146 16 25 17 70
141 15 22 14 70
140 15 20 12 69
147 19 20 12 68
149 25 20 16 68
146 30 20 25 67
141 30 36 27 66
152 29 37 28 66
151 25 43 26 65
137 18 43 24 64
146 16 41 24 64
146 15 46 24 63
143 15 48 22 62
145 16 49 17 61
137 17 49 19 61
147 15 49 18 60
147 12 40 17 59
135 8 36 13 59
145 7 23 14 58
143 8 17 14 57
139 6 21 10 57
143 4 29 11 56
138 5 32 12 55
143 5 32 14 54
142 6 74 20 54
139 8 112 26 53
143 10 126 28 52
137 10 126 27 51
140 11 125 26 51
141 11 126 26 50
138 10 123 25 49
143 9 115 21 48
140 9 110 21 48
142 10 111 22 47
143 11 105 20 46
133 12 76 15 45
137 10 35 11 45
135 9 13 9 44
133 9 14 8 43
138 12 13 10 43
136 14 13 12 42
151 25 26 15 41
149 26 26 15 40
145 26 30 15 40
147 26 29 16 39
148 26 27 16 38
155 26 27 16 37
156 26 26 17 37
156 25 26 17 36
158 24 23 17 35
152 22 21 16 34
141 9 18 12 34
142 7 18 12 33
139 7 11 12 32
151 11 15 16 31
148 14 15 20 30
140 15 18 23 30
142 16 18 23 29
136 15 18 23 28
140 14 16 21 27
138 14 15 20 27
138 14 13 18 26
141 13 11 17 25
135 13 11 17 25
130 14 12 18 24
133 18 15 21 23
140 24 21 23 23
139 28 26 27 22
133 32 30 30 21
141 33 31 31 21
142 28 27 26 20
131 24 23 22 20
138 19 18 17 19
138 18 20 17 19
136 18 22 19 18
137 21 23 21 18
127 20 22 20 17
137 21 28 28 17
137 18 23 24 17
126 14 20 21 16
132 13 18 21 16
131 12 26 32 15
128 12 48 56 15
129 11 52 56 15
129 10 53 61 15
134 10 57 62 14
130 8 57 62 14
130 7 56 61 14
131 7 56 61 14
125 8 56 61 13
128 9 56 61 13
127 12 52 51 13
127 13 36 33 13
131 13 29 32 13
124 13 27 22 13
129 14 20 22 12
129 16 23 25 12
127 16 23 23 12
131 15 24 24 12
128 16 28 25 12
132 16 28 25 12
134 11 24 20 12
130 12 26 22 12
132 11 25 21 12
129 12 25 21 12
129 12 24 19 12
133 11 24 19 12
126 10 21 19 12
131 8 15 14 11
130 8 13 14 11
126 7 17 15 11
127 10 17 15 11
121 11 16 15 11
123 13 18 15 10
124 12 16 15 10
118 12 17 15 10
123 12 16 15 10
121 12 17 15 10
121 12 17 16 9
123 12 16 16 9
119 14 14 16 9
124 13 14 14 9
122 12 11 13 9
123 8 11 14 8
131 12 12 15 8
123 14 13 16 8
124 15 13 13 8
123 15 12 13 7
122 16 13 13 7
126 16 12 13 7
119 14 12 12 7
121 14 17 16 7
123 14 17 17 6
118 13 20 21 6
119 11 19 20 6
118 10 19 20 6
125 14 18 21 6
126 14 17 20 5
123 13 17 20 5
123 19 20 22 5
122 19 19 21 5
125 20 17 21 5
129 20 17 19 5
125 20 12 14 5
130 20 18 16 4
130 18 24 15 4
125 15 25 14 4
131 14 24 15 4
126 15 35 15 4
136 10 45 13 4
138 10 45 14 4
133 9 47 16 4
138 9 49 16 4
135 9 50 15 4
133 9 59 14 4
136 9 55 14 4
131 9 50 14 4
136 9 50 12 4
134 8 48 10 4
130 7 44 10 4
133 6 50 11 4
128 6 55 9 4
131 6 66 9 4
131 6 68 12 4
128 6 56 12 4
133 7 49 14 5
129 6 55 14 5
129 6 73 15 5
131 5 90 15 5
127 5 90 15 6
131 5 92 15 6
128 5 98 15 6
127 7 91 16 7
131 6 92 20 7
128 6 90 21 7
130 5 88 20 8
129 6 88 20 8
125 7 83 20 9
133 10 70 20 9
130 10 75 18 10
131 9 76 16 11
132 9 80 16 11
131 9 88 16 12
130 11 84 12 12
123 12 84 17 13
127 11 88 17 14
131 10 112 24 14
130 15 131 23 15
125 21 135 30 16
122 27 132 34 16
124 27 132 38 17
128 29 120 38 18
125 33 109 40 19
125 36 105 41 19
127 37 113 41 20
122 37 123 43 21
126 37 108 39 22
123 41 75 41 23
121 44 66 42 24
135 55 62 51 25
143 63 60 57 25
140 63 60 57 26
131 57 68 52 27
137 50 69 50 28
136 43 67 42 29
122 35 60 31 30
128 28 66 27 31
128 30 66 28 32
146 40 56 37 33
137 38 56 35 34
118 31 58 27 35
129 30 74 30 36
128 31 87 30 37
122 32 87 30 38
130 31 97 28 39
131 24 97 30 40
131 16 109 25 41
130 15 108 22 42
118 13 110 25 43
125 13 112 24 44
127 41 122 57 45
139 51 130 64 46
141 50 125 63 47
160 79 140 91 48
157 81 127 92 49
156 81 128 92 50
149 81 132 92 51
158 81 133 92 52
161 81 132 94 52
152 81 136 95 53
154 69 122 74 54
146 57 93 61 55
172 54 122 61 56
166 19 122 36 57
163 13 129 35 58
172 20 131 37 59
180 27 123 37 60
172 27 113 37 61
163 27 118 31 62
164 25 114 28 63
157 23 133 36 63
141 22 132 37 64
133 21 133 35 65
124 18 145 39 66
133 19 147 40 67
132 16 144 40 68
118 6 140 38 69
132 13 137 39 70
133 14 136 39 71
128 14 137 39 71
138 14 100 31 72
136 14 76 29 73
133 14 97 29 74
138 14 113 31 75
138 13 102 26 75
138 12 102 20 76
136 13 97 23 77
134 7 99 26 78
141 7 111 35 79
138 7 117 37 80
148 14 127 44 81
147 18 130 51 81
141 18 162 53 82
148 19 147 49 83
143 17 164 57 84
143 17 169 57 85
144 16 169 57 85
140 16 180 57 86
148 19 177 56 87
145 22 182 53 88
131 20 177 50 88
135 16 195 41 89
135 14 179 41 90
140 12 211 62 91
140 11 223 64 91
138 12 222 65 92
145 12 225 64 93
140 13 212 64 93
141 12 220 60 94
140 10 222 63 95
136 16 243 71 95
145 16 211 68 96
143 16 211 69 97
139 16 191 58 97
141 15 179 51 98
143 14 175 46 99
143 13 178 45 99
140 9 178 54 100
136 10 149 53 100
144 13 182 65 101
144 13 156 57 102
144 14 165 61 102
142 14 156 59 103
141 16 188 66 103
141 25 183 79 104
130 30 188 78 105
145 34 193 78 105
146 33 204 80 106
143 32 207 76 106
142 37 211 77 107
138 41 259 94 107
137 46 259 98 108
138 48 259 99 108
130 49 250 97 109
141 45 222 80 109
142 39 220 80 110
129 27 221 79 110
133 18 202 71 111
128 17 185 65 111
141 21 194 79 112
141 27 144 66 112
136 23 127 53 113
138 21 128 46 113
133 28 109 46 114
151 33 112 46 114
151 41 122 56 114
137 43 151 68 115
150 44 155 74 115
151 43 152 75 116
143 41 143 61 116
144 34 136 60 116
145 32 133 63 117
158 37 133 63 117
157 36 144 65 118
147 34 161 65 118
159 30 179 74 118
162 25 210 80 118
156 22 217 69 119
154 19 218 71 119
152 19 224 74 119
151 19 223 73 120
145 22 220 77 120
152 23 219 79 120
153 22 208 72 120
135 26 169 66 121
148 26 165 62 121
147 26 118 46 121
147 29 87 44 121
148 33 99 47 121
145 33 89 47 121
156 35 89 45 122
154 33 89 39 122
146 32 89 35 122
153 31 95 34 122
153 23 83 29 122
153 21 89 38 122
153 24 82 38 122
147 23 89 40 122
156 19 63 35 122
152 18 69 32 122
153 14 70 32 122
155 16 68 31 122
149 15 66 30 122
158 16 59 28 122
157 18 62 30 121
152 17 55 19 121
155 18 55 21 121
149 20 39 17 121
153 20 37 16 121
153 20 31 15 121
149 21 57 16 121
152 21 56 16 120
149 21 72 18 120
149 20 77 18 120
149 19 76 16 120
140 18 78 16 119
148 16 85 19 119
146 12 85 18 119
141 9 95 28 118
144 10 97 32 118
137 10 73 32 117
146 10 75 32 117
144 9 72 32 117
134 10 69 33 116
142 12 70 33 116
138 12 68 33 115
137 12 55 27 115
136 9 58 28 114
132 10 43 22 114
135 11 35 19 113
131 11 29 20 113
124 10 44 21 112
130 8 47 18 112
141 17 60 30 111
134 20 75 30 111
126 23 77 31 110
135 25 77 32 109
139 25 86 32 109
134 23 91 31 108
137 20 100 31 107
138 16 100 28 107
149 17 90 28 106
147 17 83 29 105
132 17 62 21 105
148 17 67 21 104
148 17 69 20 104
133 12 70 13 103
140 10 63 13 102
137 6 56 11 102
144 7 27 9 101
144 9 23 11 101
134 10 22 13 100
145 12 19 15 99
144 12 35 17 99
137 12 33 20 98
141 12 57 23 97
139 12 78 28 97
142 11 90 30 96
141 10 89 31 95
133 10 91 32 95
143 11 87 30 94
144 16 86 32 93
143 13 78 25 93
143 13 78 26 92
140 13 75 29 91
150 15 97 34 91
145 15 97 32 90
147 15 84 30 89
151 15 80 29 89
149 15 79 28 88
150 15 79 29 87
144 10 77 14 87
148 11 88 14 86
153 12 88 14 86
150 12 93 14 85
149 11 80 9 84
151 11 70 10 84
149 9 71 9 83
156 8 70 9 82
150 9 73 8 82
156 9 77 8 81
157 9 73 8 81
147 9 62 7 80
155 10 62 7 79
152 9 54 6 79
152 9 56 6 78
155 10 56 5 77
147 9 57 5 77
154 9 67 5 76
152 8 59 5 75
146 8 43 11 75
154 8 67 11 74
152 9 81 11 73
148 11 81 17 72
148 11 81 17 72
140 19 80 20 71
152 24 81 25 70
153 27 80 25 70
145 26 67 24 69
146 25 60 23 68
144 25 60 23 67
145 25 56 23 67
140 24 51 23 66
141 18 46 13 65
148 19 41 15 65
151 17 46 15 64
142 12 59 13 63
137 6 68 12 63
138 5 71 12 62
143 3 72 10 61
136 3 72 10 61
136 3 67 11 60
137 5 62 11 59
135 9 61 15 59
135 11 62 15 58
128 12 62 15 58
135 13 60 19 57
137 13 57 18 56
131 13 50 17 56
132 14 46 18 55
129 13 50 19 54
130 13 48 19 54
131 12 45 18 53
122 12 45 19 52
126 11 43 19 52
126 11 41 19 51
120 15 42 19 50
123 18 35 19 49
119 18 34 20 49
120 20 34 21 48
121 19 31 20 47
115 19 28 20 47
124 18 25 19 46
122 25 22 21 46
123 28 23 23 45
124 30 29 27 44
114 28 28 24 44
121 25 28 22 43
119 24 25 19 42
124 21 18 15 42
126 20 17 15 41
123 20 22 13 40
125 20 41 12 40
125 20 42 17 39
124 19 57 17 39
128 16 61 15 38
127 16 66 16 37
130 16 65 15 37
131 16 84 17 36
124 15 100 18 36
133 15 99 19 35
131 14 95 17 35
130 15 73 16 34
134 13 78 15 34
129 11 84 15 33
135 10 87 14 33
132 8 88 16 33
130 8 89 16 33
136 8 72 15 32
134 11 30 13 32
132 11 19 12 32
132 11 21 11 31
136 10 22 9 31
137 9 22 10 31
131 9 18 14 31
137 9 16 14 31
138 9 17 14 30
131 8 16 14 30
135 7 15 14 30
132 6 15 14 30
134 5 15 14 30
137 5 16 14 30
127 5 16 13 30
135 5 15 13 29
134 5 5 9 29
128 5 6 9 29
137 8 12 13 29
135 8 12 13 29
136 8 12 13 28
136 8 12 13 28
135 8 13 13 28
138 7 13 13 28
135 11 14 15 28
131 12 17 18 27
134 12 17 18 27
130 13 17 18 27
129 10 13 15 27
127 11 13 15 26
125 11 14 15 26
129 12 17 17 26
123 12 17 17 25
126 12 17 16 25
126 9 17 13 25
124 8 12 8 24
129 8 14 10 24
123 6 13 10 24
126 6 13 12 23
127 6 13 11 23
125 6 13 11 23
130 6 10 9 22
125 6 11 10 22
126 6 10 10 22
129 6 10 10 21
128 7 10 10 21
130 6 8 8 20
127 7 8 8 20
123 8 9 6 20
127 10 13 13 20
124 12 14 14 19
125 12 16 16 19
125 10 14 15 19
123 10 15 17 18
128 11 16 18 18
123 12 16 19 18
126 12 16 19 17
128 12 16 18 17
127 12 16 18 17
131 12 14 15 16
127 11 13 15 16
125 10 10 12 16
129 10 10 12 16
125 11 9 9 15
127 10 5 6 15
125 15 10 10 15
123 15 10 10 15
126 15 10 11 14
119 15 10 11 14
121 15 10 12 14
121 15 12 16 14
120 16 12 16 13
124 15 12 18 13
120 15 12 17 13
123 16 13 18 13
124 10 10 17 13
122 10 10 18 12
126 11 12 18 12
124 10 11 17 12
128 10 11 17 12
133 10 14 16 12
129 11 21 24 12
130 13 21 21 12
129 12 21 21 11
130 15 22 22 11
134 15 22 22 11
129 15 22 22 11
138 14 21 20 11
139 13 21 20 10
134 15 21 21 10
139 15 16 16 10
136 15 11 10 10
138 15 11 10 9
139 14 11 8 9
135 15 9 8 9
138 15 9 7 9
135 15 9 7 8
133 14 9 9 8
137 14 10 11 8
132 11 9 10 8
135 11 12 11 7
134 11 14 12 7
133 13 18 14 7
138 13 21 16 7
130 9 22 17 7
136 13 26 22 7
137 13 25 23 6
128 12 24 20 6
133 12 25 20 6
130 12 25 20 6
128 12 22 18 6
129 12 20 16 6
123 12 20 17 6
129 14 19 18 6
128 15 19 20 6
123 12 10 15 6
128 11 10 15 6
125 8 8 13 5
127 7 8 11 5
127 6 10 11 5
125 6 9 10 5
132 6 14 10 5
130 9 16 10 5
132 8 25 10 5
133 7 29 10 5
130 8 28 10 5
134 7 31 9 5
132 8 56 10 6
132 8 69 10 6
133 8 71 9 6
127 8 91 11 6
131 9 93 13 6
129 8 93 13 6
125 7 109 12 6
130 7 114 13 6
126 8 111 14 6
128 8 111 14 6
128 6 108 14 6
124 5 106 14 7
131 6 109 15 7
127 6 91 13 7
127 6 90 11 7
129 6 92 11 8
125 7 73 9 8
130 6 45 9 8
127 7 44 9 9
123 7 41 10 9
128 8 36 14 9
125 9 29 14 10
129 8 54 17 10
129 7 69 18 11
127 7 82 19 11
131 7 86 18 12
125 7 85 19 12
124 8 92 20 13
126 8 98 23 13
125 9 95 22 14
128 8 92 21 15
125 7 91 22 15
122 7 91 20 16
125 7 97 25 16
120 6 91 24 17
124 6 99 27 18
123 7 128 33 19
122 7 128 34 19
128 8 133 35 20
124 8 139 34 21
126 8 139 34 21
126 8 155 38 22
128 8 156 36 23
132 8 151 36 24
129 10 166 35 25
126 15 168 37 25
132 23 140 34 26
135 28 134 33 27
130 34 130 38 28
124 35 124 40 29
132 35 128 39 29
135 33 106 25 30
129 34 88 19 31
127 40 97 23 32
131 53 81 42 33
149 65 102 71 34
144 68 116 75 34
130 66 116 74 35
140 56 119 67 36
138 46 134 64 37
114 31 174 63 38
121 20 176 58 39
119 16 205 61 40
123 19 238 64 41
123 23 258 67 42
107 25 253 58 43
119 26 244 55 44
119 30 244 55 45
107 43 243 59 46
114 44 234 51 47
121 43 199 24 48
118 36 209 33 49
115 29 198 32 50
115 26 147 33 51
120 25 104 35 52
114 25 89 35 52
116 24 96 36 53
118 24 121 35 54
120 19 122 32 55
127 19 119 33 56
124 16 131 46 57
114 16 126 40 58
143 17 113 36 59
160 17 143 44 60
160 19 162 45 61
158 19 163 45 62
156 11 169 48 63
181 10 165 48 64
189 10 175 50 65
187 11 189 49 66
189 10 173 37 67
197 10 148 36 68
172 11 146 39 69
134 11 137 39 70
138 8 124 41 71
145 7 159 46 72
155 10 170 47 73
142 11 171 47 73
133 14 173 49 74
133 17 162 51 75
132 16 162 51 76
125 17 157 50 77
130 16 179 53 78
129 16 201 59 79
130 18 202 58 80
135 17 169 51 80
132 16 129 39 81
131 16 130 32 82
134 16 153 45 83
145 17 192 68 83
144 16 191 68 84
136 17 197 68 85
142 18 183 65 86
144 18 159 55 86
136 17 161 54 87
141 17 178 53 88
138 17 189 54 89
144 17 192 54 89
147 15 184 52 90
133 8 168 27 91
145 8 169 27 91
145 10 164 30 92
143 11 157 31 93
146 11 156 34 93
140 11 164 34 94
140 11 165 32 95
142 11 163 40 95
138 11 170 41 96
141 10 174 42 97
138 11 145 41 97
136 10 139 41 98
138 8 143 43 98
130 8 141 45 99
139 10 165 51 99
139 10 154 51 100
142 12 149 53 101
145 12 179 54 101
140 13 192 61 102
145 12 193 62 102
145 14 208 65 103
136 15 214 69 104
146 16 198 63 104
143 15 196 61 105
147 13 182 58 105
149 12 182 63 106
149 18 183 60 106
153 18 174 57 107
148 15 147 40 107
146 16 152 40 108
152 17 184 41 109
151 18 181 39 109
149 20 211 43 110
148 23 212 50 110
146 25 215 51 111
150 25 215 45 111
139 18 217 43 112
144 10 208 42 112
144 14 203 42 113
137 13 207 42 113
145 13 183 34 114
142 12 179 27 114
145 13 155 26 115
150 12 166 31 115
149 15 204 40 115
156 29 213 52 116
154 44 210 65 116
147 50 203 66 117
154 47 237 64 117
153 47 231 63 118
167 48 194 58 118
168 58 198 73 119
155 68 203 92 119
172 79 219 105 119
172 87 186 112 120
164 84 178 104 120
160 72 123 88 120
162 60 140 77 121
171 54 135 76 121
166 48 132 73 121
154 50 127 80 122
164 53 139 84 122
176 52 149 81 122
162 42 131 68 122
149 26 128 47 123
157 15 99 30 123
160 9 89 30 123
153 12 98 32 123
156 13 93 31 123
157 13 92 32 124
154 12 94 30 124
161 13 96 31 124
153 12 82 21 124
159 12 82 21 124
160 13 68 22 124
154 13 81 24 124
160 13 81 24 124
158 11 78 28 124
158 12 81 29 124
166 15 81 33 124
162 15 81 32 124
162 12 73 29 124
161 12 76 32 124
160 13 77 34 124
164 13 78 34 124
159 13 62 31 124
163 13 62 31 124
164 13 48 26 123
158 11 41 24 123
162 10 41 20 123
159 10 41 20 123
166 10 41 20 123
171 9 31 11 123
159 8 32 8 123
164 6 64 11 122
161 6 66 12 122
160 6 70 13 122
162 5 87 21 122
154 4 107 24 121
158 4 107 27 121
157 4 107 29 121
149 4 108 29 120
152 4 108 31 120
151 5 110 33 120
149 4 84 29 119
151 4 80 31 119
146 4 80 31 118
150 4 73 29 118
148 4 42 26 118
142 5 46 23 117
144 5 48 21 117
142 5 47 20 116
143 6 45 20 116
141 5 33 12 116
143 6 44 13 115
148 11 53 18 115
146 12 48 18 114
144 12 83 24 114
146 12 90 24 113
155 14 89 25 112
153 15 88 24 112
137 14 90 25 111
142 11 94 23 111
144 11 94 24 110
136 15 90 25 110
139 14 78 21 109
135 14 79 25 108
138 15 108 26 107
138 16 110 28 107
123 15 118 30 106
136 16 130 30 105
136 17 138 32 105
128 17 135 32 104
136 18 148 33 103
133 16 144 32 102
137 16 140 32 102
136 16 141 31 101
135 15 114 26 100
144 12 97 20 99
142 12 93 19 98
142 11 81 19 98
143 12 62 18 97
142 12 61 18 96
149 15 29 9 95
144 20 41 13 94
137 18 42 14 93
143 18 45 13 93
142 18 44 13 92
151 22 45 23 91
148 24 44 27 90
140 29 49 31 89
145 29 54 34 88
140 29 56 40 87
140 28 56 40 87
140 24 53 39 86
141 24 55 40 85
142 23 52 39 84
135 21 57 39 83
134 25 68 42 82
136 28 73 44 81
139 28 78 44 80
147 29 63 42 79
145 25 47 28 78
145 22 52 23 78
152 19 57 22 77
150 20 64 23 76
154 22 78 28 75
153 24 85 31 74
145 24 75 29 73
156 23 66 27 72
154 21 50 23 71
152 15 49 17 70
155 10 47 15 70
149 10 48 16 69
151 11 57 17 68
146 12 70 21 67
148 12 65 19 66
152 12 51 17 65
147 13 65 22 64
146 13 73 25 64
143 15 92 27 63
146 14 96 27 62
147 14 97 27 61
140 14 109 29 60
146 14 108 29 59
147 12 114 27 59
148 13 123 28 58
150 13 114 26 57
146 11 119 26 56
146 10 123 26 56
149 6 119 26 55
142 6 120 25 54
147 6 122 25 54
145 7 112 23 53
141 7 117 22 52
145 7 101 20 52
135 7 55 9 51
136 6 59 8 50
135 7 63 9 50
125 9 63 12 49
133 9 63 12 49
126 18 62 20 48
127 18 58 19 48
127 18 53 22 47
116 18 44 22 46
120 18 44 21 46
117 18 44 22 45
119 18 38 22 45
119 18 41 23 44
122 17 40 17 44
117 17 40 17 43
115 10 46 13 42
115 10 52 14 42
119 12 53 10 41
119 12 52 10 41
117 12 50 10 40
116 13 51 12 40
117 15 52 14 39
123 15 48 14 39
121 13 47 14 38
118 14 47 14 38
119 15 43 16 37
118 16 27 14 36
123 14 18 13 36
119 12 16 12 35
122 12 18 12 35
123 12 17 12 34
114 11 14 10 34
119 10 12 11 33
116 10 13 11 33
126 15 15 15 32
129 14 13 14 31
128 19 18 16 31
133 20 17 17 30
132 20 17 17 30
129 21 17 17 29
137 22 18 17 29
136 22 18 17 28
141 22 18 17 27
143 21 17 16 27
136 19 14 13 26
144 20 15 15 26
137 13 7 12 25
136 13 7 13 25
140 14 9 14 24
139 13 10 14 23
143 12 9 11 23
141 12 13 15 22
133 12 13 16 22
138 13 17 20 21
135 14 17 21 21
139 17 21 25 20
140 17 21 25 20
138 17 21 25 20
139 18 25 33 19
134 17 27 31 19
136 17 28 33 18
138 16 27 35 18
136 16 29 35 18
142 17 31 35 17
139 17 32 36 17
139 20 35 38 17
140 22 36 39 16
134 23 36 38 16
147 23 38 28 16
147 23 37 28 15
139 21 37 28 15
141 27 42 37 15
136 29 39 38 15
138 28 33 35 14
139 29 37 37 14
129 27 35 32 14
136 25 35 32 14
135 24 34 32 14
124 16 23 25 13
125 15 21 22 13
121 15 23 23 13
128 12 20 17 13
127 10 20 16 13
124 12 21 18 12
126 12 18 16 12
121 12 18 16 12
120 13 18 15 12
119 13 18 15 11
117 13 15 15 11
126 16 16 16 11
125 15 13 13 11
124 14 11 12 10
127 16 12 15 10
123 16 12 14 10
131 17 12 15 10
129 23 19 29 9
127 23 18 29 9
130 22 18 29 9
125 22 18 29 9
127 21 18 29 9
125 21 18 29 9
125 21 18 29 8
130 19 17 27 8
122 17 17 27 8
125 17 16 27 8
125 10 9 13 8
127 10 9 11 8
134 11 11 11 7
132 14 12 13 7
127 15 12 13 7
129 14 17 19 7
130 15 18 19 7
129 12 18 17 7
127 13 18 17 7
125 13 18 18 7
134 22 26 30 7
128 21 28 32 7
134 22 31 32 7
133 22 31 33 6
137 23 33 34 6
140 23 31 33 6
132 22 29 33 6
136 22 28 33 6
137 22 27 34 6
130 23 27 33 5
132 18 23 25 5
130 21 12 19 5
126 16 11 19 5
129 11 10 9 5
124 11 10 9 5
131 13 13 18 5
130 15 17 19 4
130 14 17 19 4
138 19 20 19 4
138 23 23 22 4
138 24 24 22 4
138 22 24 21 4
136 22 24 21 4
140 21 24 20 4
133 21 23 19 4
134 20 24 18 4
135 15 20 17 4
130 9 21 13 4
133 9 21 14 4
128 10 24 15 4
130 10 23 16 4
132 10 24 18 4
127 10 24 18 4
131 10 25 19 4
131 10 25 20 4
127 11 23 19 4
131 9 16 13 4
126 9 13 13 4
124 9 13 11 4
125 9 10 11 4
121 9 11 12 4
126 9 11 11 4
121 9 11 10 4
127 14 15 12 4
130 14 15 13 4
125 13 14 13 4
129 16 12 12 4
128 16 10 12 4
128 15 11 11 4
131 15 11 12 4
125 16 11 11 4
129 15 14 11 4
128 15 16 11 4
122 10 19 6 4
124 11 19 6 4
120 11 19 6 4
121 7 19 6 5
123 8 22 6 5
119 8 23 5 5
123 8 27 6 5
121 7 27 10 5
124 9 45 13 6
126 9 69 14 6
120 8 79 14 6
126 6 80 14 6
124 6 80 17 7
126 7 86 19 7
129 7 87 19 7
128 6 85 29 8
132 6 87 28 8
132 7 89 29 9
129 7 84 30 9
134 8 75 29 9
129 8 67 29 10
132 8 65 30 10
134 8 71 31 11
129 7 68 28 11
135 8 67 28 12
132 7 75 22 12
132 8 80 22 13
135 9 82 18 14
129 7 85 15 14
132 7 76 20 15
131 6 78 21 15
128 6 95 32 16
132 6 139 37 17
127 8 153 37 17
130 8 155 39 18
130 8 158 40 19
125 7 155 43 19
128 6 167 44 20
125 7 167 43 21
125 7 173 40 22
128 7 169 36 22
124 7 174 36 23
127 7 146 32 24
125 7 126 31 25
121 7 143 38 25
124 7 136 35 26
117 10 131 34 27
133 19 105 35 28
133 23 113 38 29
129 22 125 40 29
131 24 107 41 30
125 31 118 42 31
138 36 129 45 32
138 42 132 52 33
132 46 120 49 33
140 46 127 52 34
141 45 149 54 35
123 36 152 52 36
124 24 152 43 37
127 16 162 27 38
129 11 209 35 38
127 13 206 35 39
120 16 208 36 40
126 17 216 35 41
124 16 218 34 42
125 18 212 32 43
128 31 191 31 44
130 37 177 36 44
129 36 176 37 45
117 31 156 41 46
125 29 98 41 47
126 27 89 39 48
121 28 78 37 49
122 28 66 36 50
120 26 67 31 50
114 25 67 30 51
116 24 71 31 52
110 24 73 27 53
118 23 76 29 54
118 26 83 27 55
113 27 84 26 56
118 29 84 29 56
110 29 80 28 57
122 28 73 28 58
122 28 65 29 59
117 27 64 29 60
139 23 64 28 61
145 17 90 27 62
131 14 91 24 62
132 13 83 21 63
129 12 97 33 64
161 10 96 34 65
167 9 101 34 66
158 9 107 37 67
166 11 101 37 67
171 11 96 37 68
154 11 99 37 69
140 10 150 41 70
148 11 160 41 71
145 11 162 42 72
142 11 184 36 72
128 8 194 34 73
128 8 198 35 74
134 8 214 51 75
142 7 219 53 75
138 7 234 56 76
143 6 248 63 77
145 8 209 57 78
136 7 190 59 79
146 9 205 61 80
145 12 194 63 80
140 12 183 63 81
150 14 172 61 82
150 14 133 44 83
146 14 133 50 83
144 10 127 49 84
148 8 109 45 85
149 8 108 47 86
143 8 141 62 86
145 9 137 61 87
148 11 132 59 88
145 14 172 67 89
144 14 180 70 89
140 13 180 69 90
141 13 170 62 91
142 12 169 62 91
130 10 165 60 92
137 9 166 57 93
137 9 137 40 93
127 7 102 34 94
130 7 114 37 95
126 7 81 29 95
130 6 71 19 96
130 7 74 18 97
124 7 74 21 97
129 9 74 24 98
125 9 74 24 99
128 9 69 24 99
129 11 72 29 100
127 11 114 50 100
132 12 120 50 101
130 12 117 49 102
132 13 112 50 102
135 13 128 52 103
128 13 137 51 103
135 12 140 48 104
135 15 140 51 104
130 14 139 51 105
137 13 137 50 105
134 12 115 35 106
137 10 103 35 106
139 11 114 37 107
132 11 127 36 107
135 11 111 35 108
131 16 155 57 108
139 21 193 74 109
141 21 195 75 109
138 22 225 77 110
143 20 226 78 110
142 21 225 75 111
140 28 244 85 111
143 31 241 86 112
140 32 255 91 112
148 32 260 91 112
148 30 237 81 113
137 24 196 58 113
149 22 203 59 114
148 22 183 57 114
142 21 197 59 114
147 21 202 59 115
151 20 174 52 115
152 19 186 49 116
145 16 160 36 116
145 22 189 48 116
158 35 193 55 117
164 42 215 51 117
168 40 201 52 118
165 40 204 52 118
159 50 194 55 118
170 58 218 65 118
164 67 252 83 119
162 70 248 84 119
165 70 282 85 119
168 68 263 75 120
167 58 257 65 120
147 41 252 65 120
145 36 254 56 121
154 41 263 66 121
164 43 263 68 121
156 39 268 64 121
149 29 231 42 122
167 33 250 39 122
164 29 219 38 122
149 29 210 45 123
161 31 217 66 123
162 29 199 60 123
164 29 200 60 123
174 29 187 59 123
169 30 186 60 124
172 30 146 58 124
172 33 157 59 124
163 29 129 60 124
178 29 152 61 124
176 25 145 59 125
170 25 162 47 125
176 25 158 48 125
173 25 185 47 125
169 23 185 41 125
166 25 207 45 125
173 15 200 46 126
180 19 201 58 126
172 18 197 62 126
170 18 176 58 126
170 18 176 57 126
164 16 152 51 126
167 18 153 50 126
156 18 137 51 126
158 19 142 50 126
158 19 135 51 126
144 18 133 49 126
149 18 126 45 126
148 18 130 45 126
148 18 130 44 126
152 17 132 41 126
150 17 132 41 126
148 20 130 41 126
148 22 104 40 126
148 16 83 36 126
154 16 51 24 126
149 16 49 23 126
151 16 46 22 126
153 16 37 19 126
151 22 42 24 126
150 30 36 33 126
143 33 45 35 126
147 32 54 35 126
149 28 53 32 126
136 26 69 29 125
139 26 104 31 125
138 24 113 30 125
129 17 113 25 125
130 18 117 25 125
119 19 123 36 124
132 15 122 32 124
132 12 121 30 124
125 12 113 30 124
127 10 99 26 123
123 6 96 27 123
129 6 73 27 123
129 7 64 28 122
123 7 64 28 122
137 13 56 30 122
137 16 38 20 121
127 15 32 19 121
128 15 22 19 121
126 15 27 20 120
130 16 42 21 120
129 16 44 21 119
128 14 38 14 119
136 13 39 17 118
136 17 54 28 118
127 15 88 33 117
127 13 94 32 117
132 13 98 32 116
137 14 99 34 115
136 14 97 34 115
138 14 88 33 114
142 12 81 29 114
141 12 81 30 113
141 13 80 31 112
136 10 80 27 112
147 13 63 24 111
145 13 58 29 110
134 12 46 27 110
135 14 57 34 109
136 14 59 34 108
147 19 51 35 108
146 24 56 38 107
135 24 72 39 106
149 24 102 45 105
148 24 101 47 105
138 24 93 43 104
147 23 83 32 103
145 23 104 36 102
153 26 110 39 102
154 27 107 40 101
141 23 105 38 100
154 15 106 37 100
154 14 103 35 99
143 7 66 18 98
147 8 64 18 98
141 10 59 14 97
149 12 58 13 96
148 12 45 13 96
150 14 42 10 95
153 14 42 11 94
148 14 46 13 93
148 15 68 25 92
149 15 111 43 91
150 18 128 45 91
156 19 126 43 90
153 19 132 46 89
149 19 128 46 88
150 22 128 46 88
138 17 132 45 87
145 13 134 45 86
144 10 123 42 86
140 10 123 40 85
148 9 90 25 84
144 12 38 19 84
150 15 34 19 83
149 16 23 14 82
147 16 27 15 82
152 14 24 12 81
147 14 39 14 80
147 13 45 15 80
149 13 52 21 79
146 11 54 22 78
144 5 54 23 77
140 4 60 27 76
138 4 71 30 76
141 5 77 30 75
132 6 72 29 74
137 9 71 29 73
137 12 75 29 72
153 18 73 29 72
152 20 64 24 71
144 20 56 16 70
153 18 56 17 70
154 16 58 17 69
147 15 49 16 68
151 17 36 16 67
149 21 26 20 67
157 26 37 25 66
157 28 42 26 65
133 27 42 28 65
143 22 36 23 64
143 18 53 19 63
130 16 75 23 62
132 15 92 25 62
128 14 95 25 61
129 15 95 28 60
128 14 94 31 60
116 13 82 28 59
123 10 75 27 58
123 9 73 22 57
119 9 68 19 57
120 8 71 20 56
118 8 66 21 55
122 10 49 22 55
117 12 43 24 54
128 12 39 22 54
129 12 31 15 53
126 12 24 9 52
125 12 30 13 52
123 15 51 18 51
125 14 54 18 50
131 15 54 19 50
129 14 56 19 49
140 13 77 19 49
140 12 93 17 48
123 12 91 16 47
133 12 87 14 47
132 13 79 16 46
136 13 80 15 45
137 10 81 13 45
135 10 84 13 44
139 10 83 13 44
135 10 84 13 43
125 11 69 13 43
132 10 30 12 42
141 11 16 12 41
137 11 21 16 41
133 10 19 15 40
135 11 20 15 40
140 12 44 15 39
132 12 62 15 39
136 12 68 14 38
136 11 67 14 38
138 11 68 14 37
143 12 66 14 36
134 11 66 14 36
135 11 60 8 36
136 11 59 9 35
133 10 59 9 34
138 8 54 9 34
135 7 36 11 33
134 10 15 11 33
139 10 15 10 32
134 9 9 8 32
132 11 9 9 31
131 12 9 9 31
133 14 10 11 30
138 15 9 10 30
130 15 9 10 29
133 15 10 10 29
134 15 9 8 28
128 10 10 6 28
134 9 10 5 27
130 9 9 5 27
137 11 13 12 26
138 12 14 12 26
131 12 13 11 25
130 17 18 14 25
128 18 20 16 24
130 18 21 16 24
136 19 22 18 23
133 21 23 20 23
132 22 24 21 22
132 22 24 21 22
119 24 25 22 21
129 24 25 25 21
125 24 25 25 21
130 22 27 28 20
131 22 26 28 20
126 22 28 29 19
125 21 30 30 19
119 20 33 33 18
119 18 32 32 18
125 21 32 34 18
125 18 30 32 17
122 15 27 29 17
120 15 26 27 17
120 14 25 26 16
125 15 25 23 16
117 15 24 23 16
125 11 17 15 16
126 11 15 10 15
123 12 12 9 15
123 11 15 11 15
120 11 16 13 15
126 16 16 16 14
126 17 16 17 14
121 17 17 18 14
126 18 21 22 14
125 16 23 25 14
123 13 28 24 13
128 11 27 23 13
124 11 26 23 13
130 12 26 23 13
129 12 26 23 13
122 10 27 22 13
126 10 27 21 12
122 10 25 20 12
122 9 23 15 12
123 9 17 9 12
119 10 10 8 12
122 10 8 8 12
119 10 20 16 12
118 10 21 16 12
120 9 22 17 12
117 11 23 17 12
124 9 23 17 12
123 10 23 18 12
124 11 23 18 11
128 11 22 19 11
123 10 23 20 11
129 11 26 22 11
129 12 18 15 11
128 12 18 15 11
132 12 18 15 11
129 10 17 15 11
129 10 16 13 10
130 10 16 13 10
125 9 16 13 10
133 11 17 13 10
128 9 14 11 10
128 9 10 7 10
132 7 7 10 10
128 9 17 18 10
132 10 20 18 9
131 10 20 18 9
135 13 20 20 9
139 13 20 20 9
135 13 20 20 9
137 12 20 21 9
137 12 20 21 9
133 12 20 19 9
138 12 19 17 9
134 11 10 12 9
134 11 6 12 9
136 11 6 12 9
129 8 6 7 9
135 8 5 7 9
132 9 6 6 9
131 8 6 4 9
134 6 7 4 9
131 6 7 6 9
137 6 7 6 9
136 5 8 6 9
133 5 9 5 9
139 6 7 5 9
134 6 7 5 9
134 6 4 5 9
136 8 10 8 9
135 14 13 11 9
140 14 14 10 9
135 13 15 10 9
132 13 16 10 9
136 14 15 11 9
132 14 16 12 9
135 16 18 14 9
133 16 18 14 9
131 16 18 14 9
133 15 32 13 9
123 8 41 8 9
128 10 48 8 10
128 10 48 11 10
126 11 47 11 10
130 11 45 11 10
126 10 53 11 10
128 8 78 12 10
130 8 110 14 10
127 8 116 14 10
133 7 112 16 11
131 7 110 17 11
129 6 95 17 11
134 7 89 17 11
128 6 98 17 11
129 6 110 18 11
127 6 119 18 12
126 6 120 18 12
129 6 110 17 12
125 6 114 18 12
125 6 118 17 13
126 6 97 13 13
123 7 68 11 14
125 7 80 10 14
122 6 81 10 14
123 5 79 10 15
127 9 79 13 15
121 11 90 16 15
125 11 89 16 16
122 10 92 21 16
121 10 82 21 16
125 10 77 24 17
120 9 76 24 17
123 10 63 25 18
124 10 91 27 18
122 10 140 27 18
126 8 151 27 19
123 6 152 30 19
124 5 159 30 20
126 10 153 24 20
125 12 189 27 21
126 12 230 28 21
122 12 254 30 22
125 12 260 34 22
129 11 294 43 23
127 11 295 43 23
128 13 284 43 24
125 17 286 47 25
131 19 285 47 25
134 17 284 47 26
128 13 267 47 27
136 11 242 46 27
136 11 214 49 28
130 10 213 47 29
135 9 158 37 30
130 10 89 33 30
140 11 86 35 31
140 11 82 34 32
130 8 112 35 33
134 8 173 38 33
131 8 172 42 34
135 13 259 52 35
136 14 355 54 36
132 14 360 56 37
139 15 364 57 38
139 15 367 59 38
132 14 369 58 39
135 12 399 64 40
133 10 409 65 41
134 10 374 62 42
135 15 386 70 43
123 18 354 65 44
137 23 252 61 45
136 27 236 63 46
128 27 245 62 48
129 26 244 60 49
125 27 244 62 50
138 29 195 49 51
138 31 131 48 52
133 35 175 63 53
139 36 146 60 54
141 35 148 57 55
135 34 172 57 56
130 30 178 53 57
128 25 210 57 58
138 24 210 57 59
136 25 280 69 60
131 25 310 84 61
132 23 310 86 62
145 20 295 76 63
143 17 279 67 64
132 15 281 70 65
140 12 272 69 65
143 10 264 69 66
139 11 202 57 67
146 11 200 57 68
150 12 143 54 69
146 10 60 32 70
147 10 55 21 71
135 12 62 21 72
162 12 102 32 73
163 12 101 31 73
152 12 105 30 74
167 13 111 33 75
169 12 113 32 76
155 11 116 31 77
142 11 111 34 78
145 11 109 33 78
150 11 106 36 79
152 14 106 36 80
136 14 97 29 81
147 14 110 29 81
150 14 108 29 82
144 12 113 28 83
139 12 110 31 84
148 12 127 34 85
153 12 128 31 85
146 9 161 54 86
156 10 183 57 87
157 6 187 59 88
154 9 192 68 88
156 11 182 68 89
151 11 181 68 90
156 12 175 68 91
159 12 190 76 91
148 13 210 87 92
153 13 218 88 93
149 14 242 85 94
145 14 258 89 94
150 15 303 97 95
152 16 327 97 96
163 17 334 97 96
162 17 349 100 97
153 17 350 99 98
161 17 343 94 98
160 16 325 82 99
163 16 332 85 100
165 15 308 79 100
160 14 276 70 101
165 12 225 54 102
156 7 165 46 102
153 6 189 49 103
154 8 170 49 104
149 14 207 70 105
151 14 217 73 105
154 21 294 94 106
147 22 271 88 106
153 23 311 93 107
151 24 344 98 108
143 24 352 101 108
141 28 360 98 109
131 28 369 105 109
139 28 379 106 110
137 25 373 107 110
130 27 403 120 111
130 25 366 113 112
127 25 404 123 112
127 26 401 123 113
119 23 396 124 113
