1939,2043,2071,2078,0000
2265,2068,2062,2063,0000
2024,2064,2046,2059,0000
1889,2087,2038,2043,0000
2212,2056,2039,2025,0000
2110,2044,2055,2072,0000
1856,2080,2068,2083,0000
2129,2053,2045,2032,0000
2201,2065,2048,1995,0000
1860,2051,2072,2122,0000
2054,2080,2020,2057,0000
2235,2057,2024,2105,0000
1922,2038,2020,2022,0000
1955,2069,2049,2014,0000
2238,2066,2061,2037,0000
2035,2065,2045,2074,0000
1935,2083,2079,2092,0000
2205,2075,2066,2087,0000
2102,2036,2037,2012,0000
1893,2088,2061,2040,0000
2133,2065,2032,2056,0000
2207,2080,2080,2127,0000
1909,2058,2041,2052,0000
2025,2061,2055,2042,0000
2238,2046,2041,2066,0000
1963,2055,2034,2067,0000
1926,2032,2035,2022,0000
2207,2029,2048,2026,0000
2082,2089,2059,2075,0000
1879,2047,2003,2038,0000
2171,2057,2014,2032,0000
2120,2042,2072,2058,0000
1883,2049,2007,2028,0000
2112,2073,2064,2088,0000
2215,2067,2027,2042,0000
1906,2044,2026,2037,0000
1974,2026,2016,2026,0000
2222,2056,2094,2058,0000
1993,2031,2003,2013,0000
1925,2071,2042,2098,0000
2204,2056,2019,2070,0000
2073,2081,2062,2063,0000
1907,2065,2039,2039,0000
2167,2079,2081,2089,0000
2164,2064,2047,2089,0000
1894,2056,2030,2019,0000
2064,2049,2037,2042,0000
2218,2062,2056,2058,0000
1926,2046,2014,1995,0000
1984,2060,2059,2055,0000
2206,2047,2031,1994,0000
2039,2093,2080,2175,0000
1906,2052,2017,2028,0000
2214,2063,2061,2085,0000
2092,2049,2070,2063,0000
1873,2080,2056,2049,0000
2131,2076,2077,2049,0000
2187,2075,2006,2050,0000
1897,2069,2081,2142,0000
2047,2063,2018,2067,0000
2192,2046,2013,2025,0000
1949,2056,2009,2019,0000
1942,2032,2050,2054,0000
2237,2063,2019,2060,0000
2030,2059,2039,2036,0000
1900,2051,2049,2047,0000
2179,2045,2043,2022,0000
2112,2050,2023,2084,0000
1883,2067,2021,2013,0000
2112,2053,2070,2090,0000
2194,2064,2064,2060,0000
1890,2053,2056,2033,0000
2014,2046,2061,2087,0000
2243,2070,2036,2021,0000
1970,2063,2049,2061,0000
1943,2057,2072,2108,0000
2229,2067,2032,2098,0000
2059,2079,2048,2076,0000
1903,2071,2019,2033,0000
2158,2033,2019,1967,0000
2143,2075,2109,2188,0000
1887,2066,2025,2040,0000
2094,2070,2047,2102,0000
2226,2077,2030,2030,0000
1914,2044,2045,2009,0000
1992,2031,2040,2050,0000
2233,2058,2044,2050,0000
1992,2066,2056,2052,0000
1919,2063,2024,1952,0000
2276,2117,2092,2111,0000
2079,2056,2047,2072,0000
1885,2049,2063,2119,0000
2139,2056,1941,2011,0000
2153,2048,2064,2039,0000
1857,2056,2001,1990,0000
2084,2076,2033,2048,0000
2214,2038,2023,2013,0000
1922,2057,2026,2050,0000
1941,2030,2022,2037,0000
2260,2069,2040,2049,0000
2024,2057,2068,2060,0000
1920,2065,2031,2019,0000
2188,2028,2037,1982,0000
2082,2067,2039,2043,0000
1892,2091,2009,2006,0000
2125,2059,2019,2149,0000
2200,2047,2025,2069,0000
1898,2053,2040,1999,0000
1989,2034,2062,2081,0000
2285,2111,2121,2089,0000
1944,2047,1987,1995,0000
1970,2071,2017,2085,0000
2229,2053,2037,2050,0000
2036,2059,2032,2055,0000
1880,2044,2022,2001,0000
2213,2072,2092,2059,0000
2125,2058,2012,2058,0000
1861,2057,2044,2048,0000
2133,2088,2055,2072,0000
2188,2055,2027,2045,0000
1884,2036,2047,2031,0000
2019,2053,2038,1997,0000
2244,2070,2020,2028,0000
1965,2056,2042,2060,0000
1940,2072,2130,2205,0000
2216,2063,2023,2031,0000
2052,2059,2059,2025,0000
1890,2058,2035,2068,0000
2168,2048,2008,1982,0000
2139,2045,2033,2064,0000
1865,2027,2005,2014,0000
2108,2081,2049,2103,0000
2192,2072,2042,2052,0000
1889,2055,2062,2104,0000
1992,2040,2055,2048,0000
2234,2079,2033,2026,0000
1987,2057,2037,2023,0000
1912,2061,2048,2102,0000
2215,2074,2038,2055,0000
2077,2038,2033,2068,0000
1897,2080,2063,2059,0000
2151,2051,2009,2018,0000
2172,2073,2088,2095,0000
1898,2064,2022,2006,0000
2052,2042,2038,2025,0000
2216,2058,2061,2059,0000
1936,2068,2084,2095,0000
1952,2028,1973,1986,0000
2237,2056,2039,2050,0000
2019,2069,2047,2048,0000
1893,2042,2022,2015,0000
2217,2055,2048,2065,0000
2099,2067,2019,2063,0000
1891,2077,2038,2033,0000
2133,2076,2031,2062,0000
2183,2047,2049,2023,0000
1920,2078,2061,2097,0000
2045,2056,2040,2008,0000
2252,2093,2070,2144,0000
1965,2065,2046,2035,0000
1951,2056,2047,2107,0000
2207,2043,2024,2023,0000
2073,2071,2085,2033,0000
1888,2063,2052,2101,0000
2176,2053,2031,1997,0000
2138,2059,2033,2067,0000
1866,2051,2108,2114,0000
2089,2041,2026,2013,0000
2178,2043,2043,2051,0000
1913,2067,2037,2053,0000
2011,2070,2047,2048,0000
2228,2057,2039,2059,0000
1985,2048,2063,2026,0000
1924,2048,2023,2078,0000
2216,2059,2075,2086,0000
2064,2066,2036,2046,0000
1895,2056,2037,2045,0000
2163,2065,2055,2061,0000
2148,2074,2064,2119,0000
1874,2056,2041,2088,0000
2089,2048,2031,1995,0000
2225,2092,2095,2090,0000
1924,2056,2019,2055,0000
2016,2071,2093,2121,0000
2229,2052,2023,2064,0000
1999,2064,2053,2043,0000
1920,2047,2058,2047,0000
2222,2088,2039,2063,0000
2095,2071,2047,2054,0000
1905,2081,2053,2049,0000
2128,2035,2010,2036,0000
2143,2042,2041,2030,0000
1885,2059,2028,2052,0000
2076,2049,2025,2030,0000
2221,2064,2067,2035,0000
1924,2029,2027,2034,0000
1984,2080,2081,2039,0000
2248,2099,2039,2046,0000
2048,2088,2036,2112,0000
1891,2045,2016,2054,0000
2196,2048,2043,2052,0000
2099,2047,2035,2038,0000
1869,2042,2051,2023,0000
2112,2045,2045,2067,0000
2187,2057,2057,2033,0000
1903,2066,2030,2049,0000
2026,2034,2043,2007,0000
2222,2059,2027,2078,0000
1960,2072,2089,2119,0000
1971,2083,2035,2073,0000
2232,2064,2052,2032,0000
2042,2051,2040,2028,0000
1886,2059,2053,2064,0000
2196,2063,2055,2073,0000
2139,2061,2051,2054,0000
1877,2063,2055,2047,0000
2102,2067,2047,2066,0000
2184,2032,2017,1949,0000
1936,2056,2011,2064,0000
2026,2091,2070,2112,0000
2263,2089,2091,2117,0000
1983,2045,2013,2044,0000
1911,2034,2013,2014,0000
2202,2056,2029,2017,0000
2067,2074,2015,2096,0000
1893,2058,2045,2025,0000
2144,2057,2017,2102,0000
2160,2063,2044,2088,0000
1875,2051,2040,2046,0000
2058,2037,2024,2011,0000
2222,2089,2048,2057,0000
1919,2060,2036,2039,0000
1966,2037,2010,2002,0000
2237,2055,2089,2067,0000
1993,2056,2027,2054,0000
1921,2065,2063,2074,0000
2224,2068,2030,2040,0000
2059,2039,2063,2038,0000
1893,2066,2011,2034,0000
2143,2053,2064,2038,0000
2165,2051,2056,2093,0000
1911,2069,2028,2079,0000
2046,2052,2058,2109,0000
2231,2066,2062,2048,0000
1943,2057,2056,2070,0000
1946,2042,2036,2031,0000
2245,2081,2045,2043,0000
2020,2060,2006,2019,0000
1907,2069,2075,2059,0000
2177,2056,2053,2104,0000
2103,2051,2020,2023,0000
1883,2069,2054,2021,0000
2146,2059,2050,2062,0000
2187,2068,2089,2095,0000
1897,2071,2037,2079,0000
2057,2087,2046,2070,0000
2244,2061,2084,2070,0000
1956,2068,2048,2032,0000
1942,2050,2019,2033,0000
2218,2053,2025,2022,0000
2038,2065,2027,2040,0000
1904,2063,2083,2123,0000
2190,2071,2038,2053,0000
2137,2052,2048,2020,0000
1877,2049,2003,2024,0000
2096,2059,2065,2070,0000
2216,2076,2105,2136,0000
1915,2055,2022,2013,0000
1999,2049,2055,2033,0000
2225,2057,2040,1991,0000
1995,2053,2045,2116,0000
1942,2064,2063,2085,0000
2226,2054,2048,2083,0000
2056,2052,2041,2019,0000
1935,2076,1996,1961,0000
2167,2071,2117,2192,0000
2166,2077,2042,2083,0000
1874,2035,2007,1994,0000
2077,2061,2062,2052,0000
2236,2073,2138,2091,0000
1932,2092,2042,2113,0000
1992,2069,2036,2057,0000
2228,2070,1998,2024,0000
1986,2060,2041,2035,0000
1899,2035,2051,2045,0000
2213,2063,2044,2058,0000
2092,2061,2050,2056,0000
1867,2061,2041,2039,0000
2144,2065,2080,2058,0000
2166,2056,2028,2034,0000
1879,2055,2036,2055,0000
2052,2047,2055,2063,0000
2221,2049,2045,2047,0000
1941,2069,2059,2041,0000
1974,2070,2031,2070,0000
2259,2080,2087,2111,0000
2020,2063,2061,2077,0000
1888,2058,2050,2076,0000
2204,2052,2045,2043,0000
2108,2061,2048,2046,0000
1853,2050,2056,2088,0000
2139,2070,2072,2079,0000
2179,2061,2043,2058,0000
1909,2063,2049,2043,0000
2015,2047,2042,2032,0000
2229,2050,2038,2050,0000
1959,2070,2038,2050,0000
1940,2041,2039,2008,0000
2238,2088,2085,2155,0000
2045,2056,2025,2049,0000
1879,2049,1998,1976,0000
2178,2061,2075,2114,0000
2131,2047,2025,1988,0000
1881,2074,2080,2164,0000
2104,2060,2031,2048,0000
2186,2042,2010,2024,0000
1839,2001,1999,2010,0000
2015,2058,2052,2047,0000
2230,2058,2048,2049,0000
1957,2033,2043,2053,0000
1921,2042,2006,2063,0000
2188,2030,1999,1981,0000
2083,2075,2029,2050,0000
1885,2058,2053,2056,0000
2163,2047,2017,2038,0000
2141,2051,2037,2018,0000
1884,2055,2083,2095,0000
2060,2040,1992,1996,0000
2218,2053,2054,2085,0000
1927,2060,2004,2007,0000
1980,2060,2061,2060,0000
2220,2049,2021,2031,0000
2038,2087,2058,2059,0000
1888,2032,2020,2026,0000
2203,2065,2059,2070,0000
2128,2055,2047,2041,0000
1880,2060,2061,2044,0000
2123,2050,2011,1906,0000
2187,2077,2103,2171,0000
1887,2045,2026,2027,0000
2030,2047,2038,2095,0000
2251,2080,2052,2106,0000
1928,2056,2042,2030,0000
1934,2025,2015,2015,0000
2269,2093,2046,2087,0000
2032,2064,2015,2001,0000
1905,2085,2075,2129,0000
2195,2056,2009,2019,0000
2116,2057,2029,2027,0000
1879,2062,2049,2063,0000
2117,2052,2043,2038,0000
2202,2059,2046,2039,0000
1877,2032,2029,2036,0000
2041,2074,2078,2087,0000
2223,2062,2040,2011,0000
1970,2076,2044,2048,0000
1982,2087,2031,2017,0000
2224,2061,2079,2139,0000
2058,2072,2058,2109,0000
1897,2058,2025,2046,0000
2155,2036,2029,2008,0000
2126,2052,2020,2031,0000
1882,2049,2035,2054,0000
2085,2051,2029,2055,0000
2205,2064,2048,2056,0000
1879,2025,2029,2018,0000
2019,2053,2043,2035,0000
2234,2068,2061,2081,0001
1981,2064,2033,2054,0001
1955,2089,2045,2056,0001
2208,2045,2037,2045,0001
2076,2062,2048,2057,0001
1877,2048,2032,2042,0001
2171,2060,2043,2054,0001
2142,2047,2043,2047,0001
1887,2071,2049,2057,0001
2077,2050,2031,2046,0001
2217,2068,2052,2072,0001
1946,2078,2051,2066,0001
1989,2058,2045,2055,0001
2233,2060,2046,2058,0001
2027,2084,2062,2071,0001
1919,2064,2051,2056,0001
2197,2062,2046,2053,0001
2103,2071,2042,2052,0002
1845,2039,2035,2049,0002
2195,2107,2078,2090,0002
2173,2055,2044,2056,0002
1898,2067,2039,2059,0002
2041,2045,2040,2029,0003
2236,2073,2057,2052,0003
1940,2061,2050,2073,0003
1967,2058,2047,2061,0004
2233,2057,2041,2061,0004
2016,2047,2038,2043,0005
1902,2065,2039,2042,0005
2189,2061,2051,2056,0006
2125,2069,2054,2055,0007
1871,2053,2045,2045,0008
2103,2048,2049,2052,0008
2223,2088,2059,2066,0009
1917,2066,2045,2050,0011
2028,2065,2048,2063,0012
2236,2059,2054,2062,0014
1979,2056,2046,2061,0015
1919,2043,2021,2043,0017
2227,2072,2046,2054,0019
2037,2041,2037,2047,0021
1900,2057,2056,2050,0023
2169,2074,2050,2057,0025
2110,2035,2017,2032,0027
1907,2082,2045,2055,0029
2079,2055,2042,2046,0032
2204,2070,2052,2061,0034
1936,2069,2049,2054,0036
1982,2047,2026,2037,0039
2236,2079,2041,2060,0042
1972,2041,2021,2042,0044
1920,2046,2029,2047,0047
2221,2069,2015,2047,0050
2085,2071,2021,2058,0053
1848,2023,1997,2040,0056
2219,2110,2099,2109,0058
2154,2071,2072,2068,0061
1889,2064,2038,2055,0064
2088,2053,1998,2036,0067
2199,2051,2007,2052,0070
1931,2067,2073,2081,0073
1981,2043,2122,2062,0076
2220,2047,2106,2047,0079
2006,2066,2074,2059,0082
1906,2072,2073,2064,0085
2186,2045,2066,2060,0088
2091,2055,2043,2046,0091
1879,2056,1929,2024,0093
2146,2062,1875,2015,0096
2141,2031,1850,2015,0099
1907,2064,1985,2056,0102
2053,2063,2088,2069,0105
2223,2062,2127,2062,0108
1937,2042,2148,2048,0111
1950,2045,2184,2087,0114
2203,2052,2209,2102,0117
2058,2085,2168,2099,0121
1949,2100,2077,2079,0124
2216,2104,1990,2077,0128
2155,2092,2002,2081,0132
1874,2044,2079,2045,0136
2116,2067,2169,2081,0140
2181,2055,2090,2039,0144
1934,2076,1948,2009,0148
2006,2029,1796,1975,0153
2155,1990,1835,1960,0157
1953,2023,1886,2017,0161
1904,2046,1968,2047,0166
2225,2066,2015,2079,0170
2064,2062,2139,2109,0175
1877,2072,2168,2062,0179
2150,2057,2189,2062,0184
2135,2045,2154,2057,0188
1889,2049,2137,2068,0193
2083,2062,1978,2040,0198
2230,2079,1870,2030,0202
1958,2085,1904,2047,0207
2021,2069,2018,2083,0212
2238,2080,2117,2093,0217
2001,2056,2094,2045,0222
1936,2052,2167,2051,0228
2176,2043,2185,2056,0233
2063,2047,2172,2074,0238
1863,2033,2026,2058,0244
2140,2059,2017,2065,0249
2163,2065,2002,2052,0255
1889,2053,1979,2013,0260
2068,2054,1863,1993,0266
2215,2059,1939,2031,0271
1925,2051,1972,2025,0276
1972,2046,1953,2020,0282
2237,2058,1966,2038,0287
2013,2065,2139,2065,0293
1898,2058,2300,2127,0298
2213,2089,2174,2089,0304
2109,2068,1999,2076,0309
1907,2077,2010,2070,0314
2133,2056,2071,2076,0320
2177,2059,2050,2048,0325
1894,2058,1890,1999,0330
2047,2055,1798,2001,0335
2217,2050,2013,2027,0341
1951,2052,2189,2101,0346
1948,2056,2171,2057,0351
2205,2055,2073,2054,0356
2032,2056,1997,2041,0361
1887,2041,2098,2063,0366
2170,2046,2107,2062,0372
2127,2064,2004,2045,0376
1898,2064,1976,2011,0381
2107,2053,1944,2029,0386
2196,2068,2064,2091,0391
1895,2043,2096,2059,0396
2011,2049,2156,2085,0401
2202,2053,2136,2051,0406
1958,2045,2073,2055,0411
1923,2045,2070,2056,0416
2206,2050,1975,2049,0421
2064,2053,1895,2033,0426
1891,2046,1875,2018,0432
2168,2061,2047,2069,0437
2188,2119,2209,2131,0442
1944,2118,2077,2107,0447
2095,2080,2035,2073,0452
2219,2057,1980,2021,0457
1882,1999,2011,1983,0462
1935,2010,2022,1982,0468
2203,2035,2036,2021,0473
1975,2025,2084,2033,0478
1904,2056,2132,2101,0483
2223,2096,2043,2112,0488
2113,2089,1992,2087,0493
1892,2048,1988,2032,0498
2123,2053,2107,2050,0504
2142,2054,2132,2040,0509
1880,2045,1909,2013,0514
2077,2063,1919,2047,0520
2236,2068,2051,2075,0525
1932,2065,2162,2067,0530
1967,2045,2120,2041,0535
2212,2042,2027,2018,0540
2009,2059,1973,2048,0545
1902,2057,2036,2049,0551
2209,2071,2015,2093,0556
2119,2071,2008,2063,0561
1861,2049,2123,2073,0566
2149,2080,2089,2051,0571
2221,2092,2043,2086,0576
1945,2102,2006,2091,0581
2093,2104,2041,2075,0586
2237,2073,2119,2073,0591
1954,2058,2010,2031,0596
1958,2058,1905,2035,0601
2245,2084,2095,2099,0606
2037,2074,2310,2114,0611
1852,2026,2253,2076,0616
2143,2021,2043,2000,0621
2108,2046,1887,2015,0626
1865,2046,2045,2052,0632
2084,2025,1909,2005,0637
2145,2013,1935,2031,0642
1873,2009,1849,1958,0647
1997,2028,1993,2000,0653
2233,2063,2289,2143,0658
1985,2064,2156,2106,0663
1934,2064,1991,2022,0668
2226,2073,1853,1998,0674
2059,2063,2058,2084,0679
1865,2040,2166,2125,0684
2134,2047,2140,2090,0689
2094,2029,1923,1990,0695
1877,2035,2025,1998,0700
2079,2047,2123,2036,0706
2229,2078,2160,2085,0711
1929,2045,1946,2026,0716
2015,2060,1839,2031,0722
2221,2047,1832,2035,0727
1996,2059,2015,2036,0732
1919,2038,2119,2018,0737
2193,2059,2275,2080,0743
2097,2076,2168,2079,0748
1886,2068,2043,2082,0753
2142,2058,1916,2044,0758
2168,2059,1909,2024,0763
1882,2059,1869,2070,0768
2058,2041,1748,2006,0773
2222,2064,2041,2063,0778
1961,2068,2369,2131,0783
1981,2064,2260,2021,0788
2251,2094,2214,2107,0793
2044,2077,2155,2153,0798
1921,2067,2209,2123,0803
2199,2075,2019,2035,0808
2121,2072,1799,1959,0813
1874,2039,1777,1972,0819
2113,2055,2070,2059,0824
2164,2051,2246,2131,0830
1896,2059,2138,2070,0835
2035,2069,2172,2104,0841
2246,2075,1931,2033,0847
1964,2059,1820,2011,0853
1951,2040,2072,2054,0859
2218,2064,2289,2079,0865
2039,2055,2052,2024,0871
1930,2080,1808,2015,0877
2200,2085,1922,2050,0883
2131,2092,2427,2209,0889
1882,2069,2207,2083,0895
2117,2050,1560,1891,0901
2226,2049,1670,1955,0907
1912,2060,2251,2175,0913
2008,2054,2477,2143,0919
2267,2093,1989,2088,0925
1981,2087,1888,2015,0931
1912,2054,2206,2107,0937
2213,2069,2513,2215,0943
2035,2047,2046,2021,0950
1867,2035,1625,1933,0956
2177,2044,2005,2002,0962
2149,2047,2229,2097,0968
1850,2051,2119,2049,0975
2065,2038,1818,1961,0981
2227,2049,1741,2005,0987
1879,2036,2067,2063,0993
1990,2061,2256,2130,0999
2263,2058,1936,2008,1005
1956,2009,1533,1866,1011
1917,2053,2173,2071,1017
2206,2074,2614,2250,1023
2047,2057,2419,2140,1028
1890,2047,1752,1982,1034
2137,2023,1498,1885,1039
2154,2068,2018,2084,1044
1886,2062,2161,2067,1049
2041,2051,2207,2111,1055
2260,2071,2043,2015,1060
1935,2069,2236,2095,1065
2003,2090,2120,2043,1071
2276,2064,1620,1935,1076
2019,2072,1933,2031,1081
1868,2061,2367,2277,1086
2217,2078,2243,2120,1091
2120,2085,2008,2083,1096
1890,2050,1829,1902,1101
2115,2021,2115,2028,1106
2140,2018,2192,2071,1110
1900,2065,2018,2089,1115
2009,2012,1274,1842,1120
2231,2069,2145,2149,1124
1950,2064,2587,2213,1129
1957,2078,2397,2104,1134
2234,2089,2160,2069,1138
2075,2067,1726,1988,1143
1917,2093,1983,2041,1147
2199,2053,1959,1993,1152
2159,2065,1907,2065,1156
1874,2079,2124,2138,1160
2103,2085,1975,2113,1165
2193,2039,2148,1981,1169
1903,2053,2317,2076,1174
2034,2077,1767,1950,1178
2263,2075,1786,2009,1182
2058,2138,2318,2278,1186
1906,2068,2377,2161,1190
2160,2029,2367,2080,1195
1965,1885,1077,1590,1199
1831,1979,1748,1918,1203
2178,2102,2783,2344,1207
2159,2085,2220,2114,1211
1882,2040,1299,1893,1215
2031,1961,1566,1885,1219
2217,2107,2828,2379,1223
1938,2128,2543,2171,1227
1995,2052,1877,1970,1230
2224,2016,1703,1887,1234
1989,2037,2405,2111,1238
1931,2109,2582,2259,1242
2206,2024,1149,1774,1246
2017,1946,1248,1797,1250
1877,2081,2609,2365,1254
2185,2112,2607,2203,1258
2151,2044,1765,1967,1262
1926,2035,1663,1921,1266
2046,2038,2293,2115,1270
2191,2068,2525,2183,1274
1934,2033,1765,2048,1278
1922,1937,1388,1823,1282
2237,2126,2693,2379,1286
2019,2135,2729,2211,1290
1894,2074,1832,1938,1295
2197,2024,1701,1946,1299
2076,2015,1803,1895,1304
1868,1991,1871,1992,1308
2166,2085,2043,2099,1313
2201,2104,2379,2248,1317
1899,2131,2701,2265,1322
2011,2081,2034,1945,1326
2287,2027,1413,1852,1330
1918,1976,1496,1938,1335
1947,2089,2584,2226,1339
2254,2053,2238,2099,1343
1981,2022,1719,1895,1347
1849,1956,1317,1789,1350
2201,2086,2066,2096,1354
2112,2074,2436,2121,1357
1911,2173,2902,2281,1361
2114,2084,2098,2028,1364
2176,2035,1717,1908,1368
1921,2102,2451,2336,1371
2049,2085,2169,2049,1374
2220,2035,1853,1950,1378
1960,2003,1505,1841,1381
1893,1952,1700,1948,1384
2191,2047,2383,2191,1387
2105,2117,2068,2073,1390
1840,2034,1912,1981,1392
2194,2069,1976,2002,1394
2150,2086,2186,2132,1396
1816,2015,1994,1995,1398
2125,2072,2014,2079,1399
2206,2015,1931,2013,1401
1885,2021,1952,1991,1401
2036,2106,2069,2121,1402
2232,2026,1986,2033,1402
2026,2126,2297,2170,1403
1864,2013,2022,1990,1402
2226,2036,1951,1993,1402
2072,2050,1813,1963,1402
1873,2082,2067,2124,1401
2190,2063,2115,2077,1401
2202,2100,2271,2127,1400
1884,2076,2138,2082,1399
2059,2045,2023,2033,1397
2253,2067,1978,2048,1395
1930,2066,1934,2037,1393
1959,2063,2053,2028,1390
2251,2066,2111,2075,1388
2013,2045,1943,2011,1384
1888,2068,2039,2059,1381
2217,2078,2075,2083,1377
2119,2075,1936,2046,1373
1837,2046,1952,2011,1369
2118,2055,2082,2037,1364
2204,2094,2312,2129,1360
1895,2089,2222,2130,1355
2047,2093,2007,2088,1349
2249,2066,1946,2015,1344
1968,2086,2233,2122,1338
1937,2076,2136,2082,1333
2207,2064,2025,2039,1327
2023,2048,2001,2048,1322
1881,2056,1970,2021,1316
2177,2058,1959,2024,1310
2152,2061,1982,2034,1304
1865,2057,1957,2048,1297
2098,2060,2037,2069,1290
2190,2053,1946,2006,1283
1914,2053,1987,2037,1276
2004,2054,1951,2031,1267
2211,2067,2168,2114,1259
1990,2057,2092,2029,1250
1943,2074,2159,2090,1241
2209,2070,2224,2146,1232
2081,2081,2105,2093,1223
1886,2075,2126,2081,1214
2157,2044,1927,1981,1205
2137,2060,1993,2036,1196
1876,2065,2050,2055,1187
2072,2050,2004,2028,1178
2230,2069,1950,2026,1169
1913,2056,1954,2013,1160
2002,2075,2123,2100,1150
2281,2093,2141,2111,1140
2041,2106,2045,2109,1131
1985,2103,2001,2075,1121
2324,2135,1964,2073,1110
2143,2097,1861,2039,1100
1894,2095,2227,2168,1089
2142,2093,2469,2216,1079
2204,2074,2356,2114,1068
1864,2061,2155,2059,1058
2023,2003,1748,1920,1048
2153,1979,1813,1917,1038
1848,1993,2046,2045,1028
1877,1985,1996,2003,1018
2191,2002,1996,2010,1009
1981,1994,1918,1969,0999
1840,2018,1876,1986,0990
2166,2015,1913,1995,0980
2095,2025,1990,2018,0971
1837,2024,2035,2030,0960
2112,2048,2103,2082,0950
2181,2055,2052,2043,0940
1905,2050,2070,2055,0929
2031,2056,1995,2048,0918
2248,2081,2035,2089,0907
2024,2106,2130,2127,0896
1871,2004,2079,2013,0884
2314,2111,2158,2099,0873
2009,2022,2030,2015,0861
1903,2080,1938,2023,0849
2190,2036,1866,1972,0837
2112,2019,1933,1976,0825
1861,2069,2150,2097,0813
2071,2057,2205,2146,0800
2193,2070,2139,2107,0788
1886,2046,2013,2048,0776
2008,2044,1951,2030,0764
2217,2060,1946,2065,0752
2015,2049,2029,2035,0741
1945,2083,2162,2096,0731
2275,2105,2256,2117,0721
2105,2079,1987,2032,0711
1936,2145,1911,2058,0702
2167,2082,2047,2070,0693
2185,2091,2240,2125,0684
1934,2111,2270,2131,0676
2078,2066,2108,2055,0668
2235,2097,1998,2066,0659
1908,2041,1942,2025,0651
1994,2056,1999,2049,0643
2221,2056,2043,2050,0635
1991,2043,2017,2030,0627
1874,2021,1912,2002,0619
2195,2048,1989,2050,0610
2078,2044,2015,2037,0602
1839,2038,1951,2003,0594
2139,2058,1963,2017,0585
2161,2046,2092,2059,0577
1849,2023,2219,2057,0568
2033,2037,2208,2060,0560
2191,2031,2061,2018,0552
1959,2062,1981,2041,0544
1964,2051,2001,2056,0536
2256,2072,2041,2104,0528
2039,2054,2023,2065,0520
1941,2087,2059,2088,0513
2221,2077,2015,2070,0506
2173,2111,2039,2095,0499
1861,2042,2083,2061,0492
2145,2078,2123,2069,0485
2207,2053,2053,2047,0478
1924,2084,2006,2061,0471
2036,2059,1995,2053,0464
2225,2046,2025,2060,0458
1963,2070,2035,2045,0451
1965,2080,2037,2076,0444
2232,2054,2060,2067,0438
2025,2035,2052,2044,0431
1873,2047,2079,2045,0424
2239,2096,2068,2075,0418
2137,2060,2048,2068,0412
1887,2054,2121,2073,0406
2088,2048,2105,2069,0400
2178,2055,2040,2072,0395
1889,2039,2026,2041,0389
2012,2051,2015,2032,0384
2243,2064,2054,2051,0379
1997,2071,2027,2042,0375
1952,2059,2013,2049,0370
2189,2034,2001,2024,0366
2083,2075,2041,2060,0361
1931,2091,2080,2083,0357
2143,2069,2058,2070,0353
2147,2068,2038,2048,0349
1928,2072,2030,2058,0344
2064,2057,2033,2049,0340
2218,2068,2059,2066,0336
1922,2050,2044,2042,0332
1936,2014,2003,2007,0328
2255,2067,2054,2062,0324
2017,2071,2065,2063,0320
1929,2066,2078,2096,0317
2206,2051,2031,2035,0313
2089,2078,2064,2086,0309
1866,2056,2044,2039,0306
2130,2038,2038,2049,0302
2229,2093,2069,2095,0299
1913,2078,2070,2083,0295
2031,2041,2015,2017,0292
2253,2073,2077,2067,0289
1949,2050,2042,2056,0286
1978,2092,2089,2117,0283
2206,2048,2025,2055,0280
2049,2064,2025,2042,0277
1871,2030,2009,2024,0274
2161,2056,2055,2052,0271
2176,2098,2108,2107,0268
1869,2059,2037,2045,0266
2106,2071,2054,2083,0263
2203,2059,2018,2033,0261
1866,2024,1993,2003,0258
2035,2079,2075,2072,0256
2223,2042,2033,2015,0254
1973,2053,2045,2053,0251
1933,2051,2048,2054,0249
2231,2055,2045,2062,0247
2045,2054,2043,2052,0245
1861,2020,2019,2017,0243
2163,2056,2042,2035,0240
2148,2058,2059,2066,0238
1887,2058,2047,2037,0236
2088,2047,2026,2041,0234
2200,2034,2018,2055,0231
1919,2047,2043,2062,0229
1982,2059,2039,2053,0227
2260,2088,2066,2078,0224
1988,2044,2028,2037,0222
1865,2022,2020,2031,0220
2249,2087,2081,2084,0218
2073,2056,2005,2012,0216
1893,2057,2106,2106,0214
2176,2079,2058,2079,0212
2149,2045,2051,2057,0211
1872,2052,2035,2016,0209
2067,2062,2012,2049,0207
2213,2069,2034,2081,0205
1931,2074,2021,2084,0203
1977,2035,2008,2024,0201
2219,2037,2026,2029,0198
2017,2063,2052,2061,0195
1918,2065,2057,2055,0192
2213,2045,2041,2037,0189
2118,2075,2047,2058,0186
1872,2058,2048,2043,0183
2115,2043,2031,2031,0180
2184,2053,2043,2048,0176
1874,2050,2035,2035,0173
2022,2043,2034,2035,0170
2219,2052,2043,2042,0168
1943,2047,2033,2039,0165
1938,2045,2016,2025,0163
2216,2050,2032,2041,0161
2047,2045,2062,2060,0159
1890,2042,2042,2021,0157
2186,2069,2059,2094,0155
2134,2070,2034,2043,0154
1862,2042,2012,2029,0153
2149,2086,2085,2111,0152
2212,2064,2015,2042,0151
1918,2073,2080,2114,0150
2034,2076,2038,2060,0149
2229,2053,2042,2058,0148
1980,2087,2053,2054,0148
1936,2058,2030,2033,0147
2225,2054,2042,2027,0145
2038,2029,2050,2073,0144
1879,2064,2031,2059,0143
2166,2057,2025,2055,0142
2163,2071,2024,2015,0140
1865,2040,2037,2039,0139
2071,2049,2015,2029,0137
2220,2061,2064,2085,0135
1912,2055,2014,2033,0134
1981,2043,2029,2043,0132
2227,2039,2043,2033,0131
2012,2082,2066,2065,0129
1918,2059,2050,2055,0128
2215,2078,2051,2058,0127
2091,2067,2056,2056,0125
1870,2056,2036,2047,0124
2128,2046,2046,2024,0123
2197,2088,2094,2111,0122
1872,2040,2039,2022,0122
2063,2065,2040,2025,0121
2179,1997,2023,2004,0120
1933,2071,1994,2045,0120
1990,2082,2104,2127,0119
2249,2058,2007,1984,0119
2033,2068,2073,2100,0118
1900,2071,2013,2068,0117
2228,2091,2049,2154,0115
2113,2060,2010,2006,0114
1867,2048,2050,2058,0111
2117,2051,2057,2059,0108
2189,2055,2039,2076,0105
1897,2049,2048,2037,0102
2025,2046,2048,2038,0099
2232,2065,2050,2072,0095
1963,2051,2042,2051,0092
1961,2068,2062,2059,0089
2232,2069,2051,2065,0086
2053,2075,2047,2068,0084
1859,2027,2029,2043,0081
2187,2070,2052,2060,0080
2143,2078,2046,2033,0078
1832,2031,2028,2010,0076
2115,2057,2076,2041,0075
2180,2048,2015,1953,0074
1908,2055,2078,2051,0073
1993,2032,1938,2099,0072
2221,2057,2011,2009,0071
1960,2048,2064,2071,0070
1912,2021,1997,2040,0069
2213,2069,2059,2144,0067
2063,2064,1999,2090,0065
1859,2039,1996,2000,0063
2151,2037,2043,2054,0060
2140,2041,2031,2061,0057
1864,2042,2031,2013,0054
2075,2051,2049,2038,0051
2215,2060,2050,2058,0048
1913,2056,2032,2037,0045
1983,2054,2041,2038,0043
2231,2071,2041,2030,0040
2000,2077,2073,2028,0038
1855,2004,2008,1993,0037
2290,2125,2124,2103,0035
2086,2056,2056,2039,0034
1884,2067,2067,2019,0032
2160,2062,2071,2091,0031
2178,2075,2122,2125,0030
1869,2071,2004,2086,0029
2080,2068,1992,2102,0027
2174,1998,1970,2029,0025
1953,2091,2059,2131,0023
1967,2067,2090,2092,0020
2258,2063,2072,2084,0017
2029,2060,2059,2075,0014
1910,2073,2065,2067,0011
2221,2080,2075,2061,0009
2141,2079,2078,2072,0008
1885,2073,2061,2068,0007
2133,2070,2063,2059,0006
2192,2064,2053,2055,0005
1887,2053,2042,2047,0005
2034,2062,2064,2047,0004
2260,2091,2073,2076,0004
1964,2069,2068,2069,0004
1925,2027,2018,1992,0004
2241,2067,2128,2105,0004
2014,2040,2005,1967,0004
1877,2063,2121,2199,0004
2164,2017,1956,1966,0004
2112,2019,1983,1943,0004
1847,2040,1975,2093,0004
2088,2053,2019,2142,0004
2187,2047,1996,2135,0003
1893,2039,2026,2038,0003
1987,2035,2040,1988,0003
2217,2047,2032,2070,0002
1964,2043,2033,2037,0002
1914,2037,2037,2015,0001
2208,2059,2035,2042,0001
2054,2059,2039,2048,0001
1868,2049,2031,2028,0001
2161,2056,2044,2048,0001
2154,2065,2043,2057,0001
1866,2049,2027,2029,0001
2068,2063,2037,2003,0001
2217,2054,2061,2064,0001
1936,2072,2073,2075,0002
2014,2081,2079,2134,0002
2247,2068,2057,2074,0002
1970,2035,2028,2012,0002
1992,2108,2078,2083,0002
2214,2066,2052,2062,0003
2121,2089,2074,2084,0003
1901,2068,2049,2073,0003
2167,2085,2062,2079,0004
2154,2058,2063,2062,0005
1902,2062,2059,2053,0007
2047,2036,2038,2038,0009
2207,2063,2039,2031,0012
1931,2048,2014,2048,0015
1950,2026,2012,2037,0019
2276,2094,2079,2092,0024
1986,2038,2005,2028,0028
1908,2060,2046,2041,0033
2206,2057,2040,2054,0038
2110,2042,2020,2035,0043
1876,2064,2029,2031,0048
2125,2070,2033,2052,0053
2224,2094,2073,2073,0058
1877,2046,2013,2033,0063
2038,2067,2022,2048,0067
2283,2114,2057,2086,0072
1972,2072,2028,2056,0076
1981,2067,2075,2075,0081
2221,2054,2047,2067,0086
2049,2063,2013,2049,0090
1924,2078,1912,2046,0095
2182,2055,1927,2042,0099
2188,2115,2147,2125,0103
1918,2085,2283,2122,0108
2123,2089,2284,2101,0112
2302,2131,2150,2107,0117
1940,2090,1992,2052,0121
2001,2075,2064,2084,0126
2299,2136,2116,2119,0130
1974,2043,2221,2088,0135
1902,2028,2114,2025,0140
2147,1986,2046,1986,0145
1947,1937,1927,1913,0150
1811,1979,1930,1971,0155
2079,1987,1913,1993,0160
2120,2030,1926,2014,0166
1841,1999,1942,2023,0171
2035,2027,1940,2040,0176
2243,2090,1924,2042,0182
1913,2038,1876,2005,0188
1987,2052,1958,2040,0194
2257,2080,2111,2110,0199
2006,2079,2146,2100,0205
1917,2058,2224,2091,0211
2206,2050,2198,2052,0218
2068,2039,2064,2012,0224
1860,2048,1892,1972,0230
2145,2053,1831,1996,0236
2168,2069,1950,2049,0243
1865,2043,2085,2091,0249
2069,2095,2087,2112,0255
2309,2125,2067,2139,0262
1941,2059,2090,2076,0268
1972,2069,2052,2051,0274
2196,2036,2021,2021,0281
2119,2123,2026,2049,0287
1927,2082,2087,2107,0293
2246,2115,2143,2111,0300
2164,2073,2176,2098,0306
1874,2045,2141,2040,0313
2099,2072,2304,2120,0319
2190,2094,2282,2145,0326
1924,2074,2027,2054,0333
2044,2068,1806,1999,0340
2251,2086,1861,2050,0347
1972,2078,2066,2104,0355
1947,2059,2082,2065,0362
2232,2057,1990,2043,0370
2038,2045,1957,2022,0378
1850,2023,2151,2069,0386
2160,2047,2177,2059,0394
2164,2082,2123,2040,0402
1857,2037,2005,2033,0410
2113,2070,1880,2006,0418
2241,2081,1767,2015,0426
1954,2098,1705,2027,0434
2055,2096,1841,2042,0442
2303,2144,2285,2203,0451
2005,2089,2559,2193,0459
1938,2091,2544,2171,0467
2215,2060,2194,2027,0475
2057,2045,2011,2029,0483
1841,2035,1919,1999,0492
2125,2032,1833,2019,0500
2127,2031,1838,2008,0509
1843,2014,1956,1982,0518
2020,1998,1913,1949,0526
2172,2002,1917,1937,0535
1879,2007,1976,1981,0544
1936,2013,2185,2059,0552
2213,2048,2168,2102,0560
1996,2051,1936,2029,0569
1918,2048,1773,2001,0577
2239,2072,2061,2069,0585
2089,2083,2347,2175,0593
1886,2084,2280,2129,0601
2140,2057,2061,2052,0609
2184,2064,1984,2019,0617
1896,2059,1919,2027,0625
2048,2051,1823,1969,0633
2215,2059,1938,2045,0641
1921,2037,2028,2045,0649
1935,2023,2164,2049,0656
2216,2062,2213,2065,0664
2051,2071,2128,2063,0672
1916,2058,1932,1998,0679
2187,2045,1944,2042,0687
2127,2059,2222,2114,0694
1881,2075,2101,2083,0702
2091,2049,1844,2015,0709
2179,2052,1871,1993,0717
1914,2059,2214,2081,0724
2024,2086,2305,2113,0732
2233,2071,2005,2065,0739
1964,2033,1489,1909,0746
1933,2036,1950,2052,0753
2215,2061,2383,2108,0760
2057,2060,2364,2096,0767
1851,2043,2072,2026,0774
2215,2088,1908,2010,0781
2181,2128,1919,2055,0788
1941,2097,1849,2115,0795
2150,2083,1896,2035,0802
2216,2066,2106,2039,0810
1891,2060,2346,2071,0817
2003,2069,2423,2114,0824
2221,2052,2285,2141,0831
1964,2049,2225,2088,0838
1891,2020,1923,1993,0846
2196,2006,1397,1838,0853
2045,2029,1838,2007,0860
1850,2035,2198,2127,0868
2135,2043,1952,2023,0875
2170,2040,1722,1918,0882
1881,2060,2016,2039,0889
2040,2056,2177,2112,0896
2192,2038,1766,2049,0902
1904,2030,1775,2012,0909
2028,2071,2350,2120,0916
2235,2096,2749,2240,0923
2067,2104,2278,2039,0929
1891,2046,1880,2019,0936
2217,2075,2132,2056,0943
2097,2085,2363,2189,0949
1886,2056,1873,2027,0956
2148,2037,1575,1907,0963
2174,2059,1763,1973,0969
1889,2064,2133,2042,0976
2059,2070,2288,2054,0983
2237,2085,2186,2115,0989
1904,2027,1653,1937,0996
1853,2020,1766,1962,1002
2313,2074,2265,2154,1009
2065,2089,2235,2149,1015
1950,2076,1831,2042,1021
2199,2007,1424,1812,1027
2071,2017,1819,1929,1033
1847,2047,2507,2162,1039
2149,2086,2289,2122,1045
2179,2063,2249,2137,1051
1912,2101,2401,2182,1056
2016,2072,2261,2109,1062
2269,2063,1816,1979,1068
1970,2039,1443,1888,1074
1909,2039,1908,2014,1080
2207,2051,2332,2140,1086
2032,2051,2085,2023,1091
1846,2034,1719,1951,1097
2211,2056,1991,2083,1103
2174,2097,2526,2234,1108
1921,2082,1919,2063,1114
2095,2047,1718,1971,1120
2192,2031,1999,2029,1125
1880,2039,1992,1983,1131
2002,2050,2146,2060,1136
2240,2080,2390,2112,1142
1991,2070,2328,2165,1148
1871,2013,1898,1869,1154
2180,2052,1934,2046,1159
2112,2084,2132,2154,1165
1881,2090,2222,2151,1171
2179,2030,1557,1987,1176
2187,2018,1494,1859,1182
1830,2046,2243,2087,1187
2096,2093,2568,2246,1192
2219,2041,1684,1879,1198
1935,2032,1961,2080,1203
1961,2052,2199,2075,1208
2224,2011,1896,1956,1213
1998,2069,2011,1990,1218
1934,2071,2286,2233,1223
2149,1984,1771,1834,1228
2100,2085,2470,2249,1233
1840,2068,2382,2148,1238
2169,2135,2223,2153,1244
2246,2138,1969,2063,1249
1873,2010,1329,1804,1254
2006,2054,1947,2015,1259
2251,2079,2476,2190,1264
1960,2074,2187,2093,1269
1930,1970,1204,1764,1274
2215,2008,1915,1955,1279
2023,2064,1982,2099,1284
1870,2068,2224,2200,1288
2244,2077,2261,2161,1292
2143,2072,2304,2087,1297
1851,2130,2793,2323,1301
2113,2019,0924,1717,1305
2128,1897,1518,1926,1309
1903,2068,2814,2276,1313
2044,2140,2773,2217,1317
2229,2101,2219,2026,1322
1997,2049,1675,1957,1326
1915,2062,2150,2112,1330
2221,2115,2194,2140,1334
2078,2025,1356,1816,1338
1871,1955,1294,1801,1342
2153,2053,2008,2108,1345
2099,2063,2335,2183,1349
1922,2112,2501,2246,1353
2045,1999,1839,1833,1356
2268,2116,2403,2187,1360
1865,1982,1230,1771,1363
2028,2097,2382,2365,1366
2248,2084,2150,2031,1370
1953,2033,1944,1876,1373
1916,2076,2409,2112,1376
2225,2143,2235,2179,1380
2028,2017,1920,2009,1383
1903,2047,2114,2063,1386
2143,2043,2043,1985,1389
2138,2074,2361,2116,1392
1878,2054,1573,1869,1396
2035,2005,1470,1829,1399
2249,2034,2091,2079,1401
1940,2081,2305,2172,1404
1929,1964,1551,1891,1406
2258,1995,1359,1899,1408
2002,1982,2234,2089,1410
1951,2167,2657,2222,1411
2218,2111,2463,2144,1413
2106,2081,1833,1925,1414
1897,2072,1754,1991,1415
2171,2141,2407,2285,1415
2183,2085,2208,2105,1416
1940,2070,2149,2072,1416
1993,1998,1921,1961,1416
2201,2020,1907,1977,1417
1962,2065,2110,2125,1417
1918,2015,1873,1974,1417
2211,2020,1869,2010,1416
2042,2054,1881,1989,1416
1857,2019,1901,1960,1416
2190,2046,2209,2106,1415
2167,2103,2279,2151,1415
1859,2034,1823,1981,1414
2139,2061,1991,2079,1412
2224,2064,2139,2034,1411
1886,2074,2243,2144,1409
2021,2076,2088,2082,1407
2272,2043,1913,1975,1405
1939,2065,1988,2073,1403
1872,2059,2065,2068,1401
2275,2081,2164,2127,1399
2087,2077,2139,2047,1396
1888,2045,2061,1991,1393
2207,2087,2084,2089,1391
2123,2053,1851,1986,1388
1849,2067,2080,2088,1385
2115,2081,2085,2119,1382
2250,2082,2055,2094,1379
1897,2062,2003,2055,1376
1970,2050,1931,2007,1372
2214,2030,1770,1927,1369
1989,2061,1936,2059,1365
1916,2077,2197,2112,1361
2211,2087,2379,2141,1357
2067,2087,2262,2111,1353
1825,2042,1984,1976,1349
2155,2052,1944,2048,1345
2152,2065,1963,2047,1340
1863,2080,2121,2101,1336
2046,2076,2160,2100,1331
2262,2091,2157,2107,1327
1907,2062,2003,2038,1323
1977,2047,1860,1969,1318
2232,2039,1914,2012,1314
2037,2077,2094,2056,1309
1916,2074,2147,2099,1305
2176,2059,1982,2050,1300
2122,2043,1910,1983,1295
1874,2052,1977,1990,1290
2137,2068,2186,2096,1284
2224,2067,2079,2076,1279
1875,2057,2015,2071,1273
2015,2063,1997,2032,1267
2253,2073,2113,2078,1261
1959,2069,2187,2110,1256
1955,2063,2033,2056,1250
2221,2063,2015,2031,1244
2039,2066,2074,2074,1238
1878,2043,2018,2052,1232
2198,2069,2075,2068,1227
2153,2069,2007,2046,1221
1904,2073,1888,2009,1215
2110,2064,2010,2060,1209
2224,2061,2116,2077,1203
1868,2041,2133,2067,1197
2000,2031,2023,2022,1191
2188,2019,1845,1986,1184
1934,2024,2002,2022,1178
1864,2004,1954,1976,1172
2280,2067,2153,2096,1165
2104,2104,2240,2168,1158
1926,2122,2175,2143,1152
2207,2109,2154,2136,1145
2187,2092,1996,2032,1139
1852,2046,1941,2006,1132
2070,2046,2001,2042,1125
2215,2041,1910,2009,1119
1854,2029,1907,1995,1112
1998,2049,2067,2069,1104
2259,2062,2147,2071,1097
1977,2060,2197,2099,1090
1955,2055,2014,2029,1082
2199,2038,1905,1985,1075
2055,2016,1971,2009,1067
1809,1995,2009,2010,1060
2122,2029,2071,2070,1052
2134,2043,2010,2007,1044
1873,2058,1956,2042,1037
2077,2073,2061,2053,1029
2244,2072,2022,2013,1021
1912,2061,2111,2064,1014
1956,2047,2184,2105,1006
2245,2062,2150,2115,0999
2010,2064,2113,2100,0991
1908,2055,1982,2031,0984
2213,2060,1967,2025,0977
2093,2048,1997,2038,0970
1848,2058,2024,2036,0963
2153,2040,1995,2022,0955
2191,2033,1861,1962,0948
1930,2080,2028,2073,0941
2029,2054,2092,2097,0933
2232,2070,2091,2091,0925
1957,2070,1994,2045,0916
1931,2043,1868,2008,0908
2217,2048,2104,2071,0899
2034,2059,2191,2106,0891
1871,2042,2249,2094,0883
2176,2065,2109,2068,0874
2145,2074,2135,2097,0867
1881,2063,2096,2071,0859
2087,2047,2007,2020,0852
2205,2064,1974,2034,0845
1904,2045,1976,2032,0839
1999,2049,1971,2033,0832
2244,2046,1965,2016,0825
1961,2030,1959,2010,0819
1932,2044,1999,2038,0812
2194,2042,1982,2028,0805
2079,2064,1915,2019,0798
1873,2030,1959,2036,0791
2162,2075,2153,2117,0783
2181,2096,2302,2146,0775
1913,2078,2185,2088,0768
2083,2068,1995,2047,0760
2213,2056,2068,2076,0752
1921,2066,2133,2070,0745
1966,2053,2183,2086,0738
2222,2063,2056,2051,0732
1990,2045,1958,2020,0725
1880,2025,1957,2008,0719
2233,2059,1977,2029,0714
2088,2046,1963,2021,0708
1894,2047,1906,2015,0702
2151,2043,1944,2028,0697
2176,2062,2038,2062,0691
1897,2088,2133,2079,0685
2076,2072,2094,2066,0680
2240,2065,1983,2045,0673
1931,2057,2060,2048,0668
1954,2047,2119,2059,0661
2233,2045,2108,2057,0655
2014,2062,2019,2049,0649
1891,2073,2075,2094,0643
2200,2072,2159,2108,0636
2124,2075,2122,2073,0630
1860,2065,1969,2015,0624
2124,2049,1940,2030,0618
2187,2058,2022,2053,0612
1881,2056,2089,2064,0606
2030,2057,2085,2047,0600
2242,2060,2065,2052,0595
1962,2059,2046,2059,0589
1918,2028,1953,2026,0583
2270,2081,1983,2055,0578
2045,2058,2021,2065,0572
1878,2049,2069,2060,0566
2224,2071,2114,2092,0561
2139,2062,2017,2055,0555
1883,2067,2010,2065,0549
2136,2089,1976,2075,0543
2224,2071,1986,2078,0538
1897,2059,2138,2087,0532
2016,2055,2227,2084,0526
2234,2067,2199,2061,0520
2010,2087,2080,2070,0515
1958,2090,2017,2078,0509
2250,2080,2043,2077,0504
2076,2078,2015,2053,0499
1888,2061,1991,2039,0494
2134,2034,1992,2030,0489
2135,2049,1997,2022,0484
1858,2038,1994,2027,0479
2074,2056,2025,2048,0474
2185,2029,2030,2045,0469
1903,2049,2019,2017,0464
2044,2067,2035,2067,0459
2190,2034,2021,2025,0454
2023,2072,2074,2069,0449
1914,2034,2059,2036,0444
2157,2033,2015,2028,0439
2100,2071,2008,2056,0433
1880,2045,2050,2065,0428
2125,2049,2098,2055,0423
2145,2047,2080,2032,0418
1905,2071,2030,2031,0412
2047,2051,1995,2028,0407
2222,2076,2055,2069,0402
1953,2073,2094,2056,0398
1970,2055,2091,2048,0393
2235,2067,2053,2059,0388
2044,2071,2034,2060,0384
1902,2044,2021,2047,0380
2239,2097,2066,2081,0376
2098,2045,2022,2058,0372
1904,2082,2057,2092,0368
2137,2072,2048,2071,0364
2205,2062,2056,2065,0361
1904,2060,2033,2043,0357
2024,2057,2039,2056,0354
2220,2053,2033,2045,0351
1992,2077,2056,2068,0348
1937,2060,2045,2056,0344
2235,2070,2049,2080,0341
2056,2057,2036,2045,0339
1865,2041,2033,2032,0336
2152,2046,2046,2051,0333
2143,2060,2049,2061,0330
1875,2063,2049,2057,0328
2093,2051,2025,2030,0325
2204,2064,2047,2058,0323
1896,2072,2040,2052,0320
2016,2064,2048,2055,0318
2242,2060,2045,2053,0316
1977,2053,2039,2048,0314
1921,2064,2040,2051,0312
2204,2043,2023,2033,0310
2066,2048,2023,2052,0308
1900,2079,2051,2080,0307
2174,2068,2032,2062,0305
2178,2053,2075,2071,0303
1879,2065,2103,2070,0302
2084,2059,2093,2065,0300
2231,2055,2066,2053,0299
1915,2053,2040,2038,0298
1953,2039,2020,2038,0297
2211,2036,2006,2029,0296
1996,2064,2030,2050,0295
1897,2043,2020,2036,0294
2223,2075,2051,2059,0293
2087,2054,2022,2017,0293
1883,2054,2057,2056,0292
2134,2062,2067,2093,0292
2165,2052,2009,2033,0291
1878,2039,2043,2048,0291
2044,2052,2009,2042,0291
2215,2049,2021,2069,0291
1950,2051,2021,2077,0290
1954,2048,2007,2015,0290
2202,2042,2041,2040,0290
2022,2050,2051,2052,0289
1912,2061,2044,2045,0289
2187,2069,2061,2053,0288
2113,2067,2062,2059,0286
1915,2066,2065,2064,0285
2103,2058,2040,2043,0283
2192,2064,2052,2055,0281
1899,2049,2028,2036,0279
2025,2073,2063,2058,0277
2229,2055,2055,2066,0275
1982,2072,2061,2070,0273
1972,2059,2048,2061,0271
2204,2054,2031,2042,0269
2036,2043,2021,2036,0267
1886,2045,2024,2040,0266
2136,2035,2018,2029,0264
2130,2045,2034,2040,0263
1870,2048,2026,2033,0262
2063,2029,2019,2030,0261
2191,2041,2018,2025,0260
1919,2061,2069,2056,0260
1947,2005,2013,2004,0259
2246,2063,2068,2085,0259
1983,2056,2045,2072,0258
1931,2083,2041,2060,0258
2201,2045,2024,2025,0257
2058,2074,2070,2067,0256
1908,2081,2053,2074,0256
2171,2071,2063,2057,0255
2165,2055,2038,2056,0255
1886,2065,2046,2054,0254
2083,2058,2045,2053,0253
2222,2051,2056,2059,0252
1919,2053,2042,2038,0251
1978,2051,2049,2052,0250
2232,2056,2048,2052,0249
2001,2058,2031,2047,0249
1915,2047,2042,2043,0248
2199,2049,2044,2047,0247
2098,2061,2056,2060,0247
1843,2035,2022,2036,0246
2124,2037,2026,2039,0246
2176,2076,2050,2066,0245
1879,2058,2044,2057,0245
2035,2043,2035,2045,0244
2250,2073,2033,2063,0244
1925,2057,2023,2051,0244
1959,2059,2036,2058,0243
2242,2063,2036,2058,0243
2029,2064,2024,2059,0243
1890,2064,1955,2044,0243
2186,2058,1910,2035,0242
2153,2085,1970,2069,0242
1889,2079,2045,2069,0242
2099,2049,2098,2058,0242
2203,2057,2157,2071,0242
1881,2038,2207,2059,0242
2013,2052,2239,2071,0242
2225,2052,2171,2045,0242
1959,2058,2071,2032,0242
1931,2054,2013,2046,0242
2226,2063,1976,2049,0242
2064,2071,1941,2043,0242
1900,2059,1883,2027,0242
2163,2051,1919,2043,0243
2146,2053,2001,2079,0243
1867,2058,2093,2091,0244
2093,2053,2080,2059,0244
2193,2038,2138,2084,0245
1938,2080,2008,2035,0246
2013,2065,1995,2034,0247
2241,2068,1959,2019,0249
1981,2042,2092,2050,0251
1919,2054,2170,2111,0252
2191,2054,2197,2079,0255
2076,2059,2089,2070,0257
1878,2050,2095,2043,0260
2140,2069,2090,2072,0263
2175,2083,2072,2079,0266
1909,2066,2007,2048,0269
2076,2067,1911,2023,0273
2224,2064,1781,2014,0277
1941,2056,1730,1982,0281
1988,2071,1814,2033,0285
2203,2060,2131,2095,0289
2017,2059,2404,2143,0293
1929,2075,2369,2104,0298
2206,2079,2131,2045,0302
2121,2056,1866,1972,0307
1881,2054,1964,2074,0312
2112,2057,2123,2061,0316
2176,2077,2125,2111,0322
1896,2047,1881,2013,0327
2023,2040,1958,2035,0332
2205,2055,2163,2084,0338
1933,2053,2233,2068,0344
1944,2052,2044,2028,0350
2240,2067,1929,2023,0356
2067,2071,2019,2077,0363
1905,2052,2062,2061,0369
2194,2049,2054,2045,0376
2123,2054,1915,2019,0383
1858,2045,1864,2025,0390
2087,2046,1982,2051,0397
2189,2042,2019,2045,0404
1884,2041,2073,2038,0412
1995,2052,2239,2077,0420
2239,2076,2387,2130,0428
1958,2063,2227,2063,0436
1917,2043,1956,1987,0444
2226,2047,1733,1969,0452
2054,2043,1945,2061,0461
1858,2039,2092,2080,0469
2161,2049,2022,2088,0478
2135,2048,1708,1986,0487
1856,2045,1729,1978,0496
2094,2045,2227,2095,0505
2225,2065,2353,2108,0514
1913,2046,2258,2046,0523
1991,2047,2076,2009,0533
2219,2064,2159,2090,0542
1973,2065,2123,2103,0552
1897,2061,1800,2011,0562
2243,2057,1758,2007,0571
2062,2048,1945,2054,0581
1875,2047,2080,2072,0591
2164,2064,2152,2077,0601
2160,2071,2144,2029,0611
1890,2077,2224,2078,0620
2079,2063,1924,1996,0630
2241,2067,1797,1978,0640
1923,2062,2071,2097,0649
1987,2056,2249,2118,0659
2211,2066,2344,2155,0668
2029,2067,2070,2040,0678
1924,2069,1881,2015,0687
2218,2057,1760,1941,0696
2109,2063,1890,2051,0706
1913,2084,2117,2071,0715
2165,2102,2334,2185,0724
2228,2120,2236,2112,0732
1930,2083,2048,2104,0741
2019,2045,1866,1991,0750
2209,2051,1994,2043,0758
1976,2061,2055,2045,0767
1974,2077,1985,2064,0775
2241,2072,1968,2066,0784
2055,2058,2079,2051,0792
1879,2061,2286,2111,0800
2192,2077,2283,2160,0808
2128,2067,2058,2132,0816
1855,2022,1939,1959,0824
2040,1999,1946,1956,0832
2115,1972,1846,1923,0840
1849,1992,1921,1993,0847
2015,2057,2217,2127,0855
2198,2030,1924,1932,0863
1956,2029,1942,1995,0871
1869,2007,2064,2060,0878
2164,2026,2124,2096,0886
2048,2033,1766,1968,0893
1878,2038,1909,1967,0901
2175,2070,2269,2091,0908
2146,2065,2445,2123,0915
1889,2064,1987,1992,0923
2063,2041,1624,1985,0930
2245,2104,2108,2139,0937
1964,2089,1853,2047,0944
2015,2052,2074,2050,0951
2249,2067,2364,2165,0958
1999,2073,2330,2081,0965
1925,2088,2251,2101,0972
2208,2076,1937,2001,0979
2128,2073,1688,2010,0986
1823,2039,2010,2084,0993
2123,2039,2081,2136,1000
2179,2049,2044,2061,1007
1882,2057,2309,2120,1014
2067,2052,2088,2021,1021
2199,2047,1885,1920,1028
1948,2075,1972,2043,1035
1989,2065,1949,2080,1042
2275,2074,1979,2082,1049
2004,2056,2437,2192,1056
1900,2085,2425,2219,1063
2264,2130,1993,2079,1070
2150,2102,1706,1931,1077
1885,2079,1875,2007,1084
2129,2047,2341,2132,1091
2163,2055,1899,2030,1097
1909,2043,1349,1910,1104
2022,2034,1876,2009,1110
2233,2073,2364,2145,1116
1994,2134,2845,2286,1122
1957,2085,2156,2058,1128
2233,2031,1580,1850,1134
1987,1968,1894,1961,1140
1834,2015,2264,2163,1146
2109,2053,2198,2176,1152
2128,2075,2271,2178,1158
1873,2028,1874,1932,1163
2073,1998,1706,1879,1169
2155,1992,1504,1800,1175
1831,2001,2039,2017,1181
2021,2043,2467,2223,1187
2235,2087,2265,2159,1193
2019,2086,1936,2023,1199
1913,2017,1625,1835,1204
2217,2037,2065,2059,1210
2042,2046,2203,2105,1216
1881,2043,1673,1982,1221
2178,2056,1886,2067,1226
2139,2070,2199,2044,1231
1872,2082,2481,2165,1236
2105,2047,1849,1970,1241
2233,2006,1727,2007,1246
1879,2069,2554,2382,1251
1986,2077,2312,2105,1256
2277,2120,1952,2069,1260
1978,2053,1324,1826,1265
1942,2031,2263,2102,1270
2234,2109,3042,2296,1275
2082,2087,1864,1976,1279
1886,2003,1639,1935,1284
2197,2104,2257,2185,1289
2207,2146,2547,2230,1293
1915,2123,2081,2066,1298
2050,1961,0943,1691,1303
2221,2053,2232,2108,1307
1941,2111,2461,2178,1312
1927,2059,2110,2018,1316
2296,2081,1874,2029,1320
1968,1970,1681,1897,1324
1900,2077,2025,2045,1328
2184,2045,1513,1929,1332
2095,1949,1751,1916,1335
1889,2098,2766,2318,1339
2155,2068,2530,2140,1342
2230,2150,2012,2070,1346
1828,1994,1304,1781,1349
2001,1963,2483,2214,1353
2250,2132,2570,2226,1356
1890,1987,2012,2002,1360
2014,2177,2187,2099,1364
2249,2075,1694,1911,1368
2027,2084,2084,2131,1372
1815,2026,1839,1986,1376
2213,2028,1928,1936,1380
2127,2100,1999,2084,1384
1857,1979,1829,1974,1388
2161,2044,2005,1978,1391
2181,1971,2125,2093,1395
1829,2023,2265,2085,1398
1923,1956,1783,1952,1401
2212,1886,1790,2053,1404
1903,2034,2207,1989,1407
1902,2177,2301,2073,1409
2291,2249,2159,2114,1412
2060,2142,1913,2069,1414
1889,1977,2053,2095,1415
2090,1958,1782,1863,1417
2189,2119,2028,2031,1418
1897,2157,2139,2157,1419
2135,2117,2229,2200,1420
2271,2087,2144,2091,1421
1874,2021,1694,1938,1422
2011,1996,1983,2112,1422
2260,2038,2251,2095,1422
1978,2037,2191,2059,1422
1896,2009,1925,1946,1422
2183,1995,1697,1950,1422
2111,2063,2183,2139,1422
1849,2040,2007,2020,1421
2168,2079,2169,2113,1421
2179,2033,1983,1986,1420
1871,2066,2144,2086,1419
2061,2064,2054,2075,1418
2258,2084,2098,2111,1416
1928,2062,2047,2031,1414
1966,2055,2004,2020,1412
2268,2063,1979,2034,1410
2013,2072,1990,2011,1408
1855,2051,2041,2059,1405
2240,2107,2178,2147,1403
2167,2105,2152,2142,1400
1900,2091,2179,2144,1396
2140,2060,2058,2018,1393
2157,2033,1969,1996,1390
1893,2073,2026,2069,1386
2015,2031,1755,1937,1382
2207,2062,2112,2106,1378
2000,2073,2150,2069,1374
1931,2088,2320,2141,1370
2259,2081,2111,2064,1366
2023,2000,1685,1894,1362
1857,2055,1961,2075,1357
2155,2087,2174,2110,1353
2134,2082,2165,2079,1348
1840,2043,1984,1985,1343
2048,2035,1946,2006,1339
2196,2081,2034,2083,1334
1898,2059,2058,2057,1328
2026,2074,2091,2093,1323
2217,2053,1886,2016,1318
1899,2058,1946,2075,1313
1968,2036,2083,2026,1307
2270,2090,2171,2079,1301
2120,2089,2225,2081,1296
1888,2062,1909,2016,1290
2154,2065,2025,2043,1284
2152,2048,2064,2031,1279
1869,2058,2084,2052,1273
2089,2078,2111,2107,1267
2253,2083,2018,2059,1261
1919,2069,2068,2074,1255
1981,2047,1903,1981,1249
2245,2043,1931,2027,1243
1959,2031,1872,1989,1236
1874,2064,2129,2108,1230
2240,2075,2148,2111,1223
2096,2060,2143,2095,1216
1877,2038,2003,1994,1210
2143,2024,1859,1942,1203
2171,2047,2090,2061,1196
1849,2061,2183,2100,1189
2056,2060,2112,2063,1183
2231,2062,2047,2034,1176
1932,2047,1921,2000,1169
1946,2050,1948,2015,1163
2215,2049,2011,2047,1156
2032,2067,2047,2057,1149
1921,2067,2084,2089,1142
2230,2069,1921,2021,1134
2117,2034,1752,1918,1127
1882,2057,1995,2045,1119
2109,2075,2257,2171,1111
2207,2086,2359,2180,1103
1910,2074,2197,2096,1095
2044,2058,2000,2027,1087
2213,2056,1956,2054,1079
1963,2064,2075,2061,1071
1933,2041,2060,2011,1064
2217,2047,2124,2051,1057
2039,2055,2062,2048,1050
1875,2030,1884,1992,1043
2172,2030,1928,2005,1036
2160,2057,2065,2092,1029
1918,2091,2067,2091,1021
2148,2109,2109,2125,1014
2265,2096,2045,2075,1007
1898,2029,1867,1954,0999
1977,2015,1922,1979,0991
2215,2047,2037,2087,0983
1972,2099,2113,2107,0974
1927,2071,2223,2160,0966
2148,2007,2087,2003,0957
2076,2056,2135,2081,0949
1848,2054,1994,2022,0941
2220,2092,2013,2064,0933
2187,2085,2035,2047,0925
1862,2056,2058,2049,0918
2031,2034,2045,2033,0910
2158,2012,1930,1973,0903
1836,1987,1903,1971,0896
1980,2043,2007,2041,0889
2271,2062,2102,2071,0882
2020,2054,2078,2056,0876
1904,2020,1964,2003,0869
2170,2019,1951,2023,0862
2056,2047,2008,2032,0855
1879,2062,2038,2061,0847
2150,2062,2020,2060,0840
2156,2054,1935,2017,0832
1854,2045,2133,2103,0825
2046,2057,2252,2091,0818
2231,2071,2244,2111,0811
1960,2079,2139,2097,0804
1973,2071,1987,2047,0797
2267,2092,1987,2066,0790
2047,2082,2031,2061,0784
1901,2051,2002,2035,0778
2179,2041,1963,2005,0772
2105,2056,2017,2048,0767
1867,2055,2013,2047,0761
2117,2057,2038,2055,0755
2183,2053,1967,2001,0749
1906,2038,1893,1987,0743
1995,2029,1988,2047,0737
2228,2046,2113,2084,0731
1916,2037,2160,2107,0725
1931,2061,2060,2060,0718
2221,2066,2074,2059,0712
2049,2061,2144,2065,0706
1867,2040,2143,2039,0699
2169,2054,2074,2023,0693
2134,2060,1981,2024,0687
1877,2058,2005,2057,0681
2088,2054,2011,2050,0676
2214,2066,2008,2051,0670
1903,2061,1995,2039,0665
2024,2068,2011,2045,0659
2247,2067,2009,2054,0654
1997,2076,2034,2066,0648
1926,2049,1991,2047,0643
2235,2067,1920,2039,0637
2067,2046,1947,2037,0632
1887,2058,2151,2081,0626
2154,2062,2289,2120,0620
2174,2082,2161,2095,0615
1877,2084,2121,2096,0609
2056,2065,2089,2064,0603
2206,2065,2155,2079,0598
1928,2058,2060,2038,0593
1970,2056,1979,2035,0588
2236,2058,1978,2040,0583
2017,2059,2000,2035,0579
1906,2055,1983,2031,0574
2179,2056,1974,2037,0570
2102,2064,2013,2067,0566
1904,2061,2033,2062,0562
2160,2073,2049,2070,0559
2205,2058,2034,2056,0555
1890,2048,2013,2043,0551
2064,2073,2051,2083,0547
2221,2056,2056,2053,0543
1957,2067,2018,2028,0538
1959,2046,2044,2053,0534
2216,2054,2078,2052,0530
2026,2057,2102,2061,0525
1896,2051,2089,2040,0520
2192,2051,2069,2047,0516
2119,2063,2051,2062,0511
1867,2063,2041,2060,0506
2110,2055,2035,2049,0501
2187,2063,2046,2046,0497
1883,2046,2047,2033,0492
2027,2059,2025,2049,0488
2229,2060,1998,2033,0483
1963,2058,1981,2046,0479
1939,2050,2016,2056,0474
2229,2061,2079,2070,0470
2067,2072,2129,2079,0466
1880,2054,2078,2051,0462
2180,2057,2044,2052,0458
2148,2061,2017,2059,0454
1885,2058,2015,2050,0450
2095,2059,2035,2064,0446
2231,2088,2054,2077,0442
1917,2059,2064,2061,0438
2046,2097,2075,2073,0434
2258,2081,2068,2073,0430
1993,2071,2053,2079,0426
1912,2045,2040,2034,0422
2213,2068,2024,2045,0418
2095,2078,2056,2072,0414
1877,2060,2040,2049,0410
2166,2061,2042,2056,0406
2157,2052,2033,2046,0402
1880,2052,2037,2045,0398
2057,2048,2042,2047,0394
2200,2044,2032,2040,0390
1888,2022,2025,2032,0386
1973,2048,2035,2046,0382
2223,2041,2027,2039,0378
1998,2043,2029,2042,0374
1911,2054,2053,2068,0370
2173,2043,2023,2023,0366
2146,2118,2129,2128,0362
1881,2058,2074,2066,0358
2160,2103,2123,2127,0354
2193,2063,2042,2045,0351
1864,2036,2011,2018,0347
2064,2075,2054,2056,0343
2239,2071,2048,2069,0340
1990,2105,2130,2137,0336
1985,2103,2062,2075,0332
2225,2055,2058,2055,0329
2049,2078,2056,2080,0325
1906,2053,2028,2060,0322
2180,2073,2046,2057,0319
2117,2052,2038,2049,0316
1874,2042,2028,2030,0312
2093,2054,2031,2031,0309
2192,2056,2033,2040,0307
1904,2043,2034,2043,0304
1996,2037,2019,2030,0301
2219,2037,2024,2035,0299
1967,2065,2047,2052,0296
1959,2053,2043,2033,0294
2200,2051,2038,2039,0292
2072,2075,2080,2085,0290
1876,2045,2047,2063,0288
2143,2057,2032,2065,0286
2158,2079,2051,2074,0285
1842,2025,2006,2016,0283
2124,2067,2058,2081,0281
2217,2070,2048,2061,0280
1918,2052,2047,2060,0278
2016,2057,2043,2044,0277
2235,2059,2046,2040,0276
1994,2064,2040,2030,0275
1944,2088,2058,2079,0274
2214,2053,2042,2057,0273
2067,2051,2028,2054,0272
1876,2050,2028,2036,0271
2146,2051,2030,2015,0270
2170,2073,2084,2078,0269
1875,2051,2024,2047,0269
2060,2051,2038,2057,0268
2216,2061,2028,2055,0267
1927,2050,2033,2043,0266
1971,2066,2056,2064,0265
2263,2074,2052,2067,0264
2025,2067,2041,2044,0263
1912,2063,2045,2056,0262
2227,2073,2055,2067,0260
2100,2053,2033,2049,0258
1899,2074,2088,2097,0257
2137,2070,2048,2059,0255
2195,2073,2065,2077,0253
1876,2046,2035,2049,0251
2015,2029,2024,2030,0249
2256,2097,2075,2085,0247
1922,2029,2013,2013,0245
1949,2047,2037,2033,0243
2227,2047,2053,2044,0242
2027,2058,2064,2080,0240
1893,2063,2044,2049,0239
2216,2081,2057,2067,0238
2124,2053,2031,2026,0237
1877,2059,2046,2051,0236
2099,2045,2043,2066,0234
2201,2057,2010,2035,0233
1891,2034,2031,2062,0232
2011,2057,2039,2058,0231
2247,2070,2047,2069,0229
1944,2039,2015,2045,0228
1930,2040,2033,2048,0226
2219,2055,2033,2048,0224
2077,2091,2053,2064,0223
1873,2026,2038,2021,0221
2187,2075,2099,2105,0219
2118,2042,2029,2025,0218
1888,2059,2056,2055,0216
2076,2047,2048,2055,0214
2212,2066,2039,2056,0213
1918,2054,2039,2093,0211
2018,2094,2053,2090,0210
2195,2039,2023,2057,0208
1971,2034,2029,2035,0207
1948,2037,2046,2037,0205
2232,2097,2091,2082,0203
2072,2047,2030,2022,0202
1868,2039,2051,2053,0200
2144,2043,2027,2036,0198
2150,2052,2030,2052,0197
1922,2067,2022,2016,0195
2044,2037,2041,2035,0193
2210,2047,2061,2050,0192
1939,2074,2070,2085,0190
1966,2050,2019,2021,0189
2229,2060,2044,2039,0187
2018,2065,2055,2049,0186
1925,2062,2055,2061,0184
2200,2080,2024,2093,0182
2069,2017,1965,1989,0180
1885,2053,2070,2101,0179
2165,2127,2116,2112,0177
2196,2070,2064,2079,0175
1889,2051,2029,2035,0173
2074,2089,2055,2071,0171
2225,2051,2048,2072,0168
1926,2029,2029,2043,0167
1982,2061,2055,2049,0165
2237,2071,2056,2052,0163
2127,2170,2171,2163,0162
1863,2009,1970,1937,0160
2171,2030,2051,2053,0159
2117,2047,2018,2043,0157
1856,2065,2039,2072,0156
2139,2099,2045,2093,0155
2198,2041,2003,1959,0154
1886,2043,2028,2044,0153
1997,2060,2021,2069,0152
2253,2075,2085,2122,0151
1979,2074,2044,2060,0149
1935,2050,2033,2050,0148
2173,2010,2016,2023,0147
2033,2024,2014,2029,0145
1880,2057,2041,2037,0144
2171,2058,2032,2038,0142
2165,2070,2061,2070,0141
1885,2072,2061,2040,0139
2050,2041,2035,1985,0137
2202,2049,2056,2028,0136
1927,2059,2031,2055,0134
1993,2070,2042,2114,0133
2227,2048,2015,2047,0131
2005,2069,2035,2059,0129
1921,2074,2054,2071,0127
2196,2051,2026,2037,0125
2099,2059,2047,2073,0123
1877,2049,2033,2034,0120
2139,2068,2042,2064,0118
2175,2058,2033,2027,0116
1880,2043,2027,1989,0113
2060,2066,2106,2106,0111
2215,2061,2048,2089,0108
1954,2065,2045,2073,0106
1968,2064,2042,2029,0103
2224,2060,2047,2056,0101
2010,2049,2028,2050,0099
1896,2045,2011,2035,0096
2197,2065,2055,2054,0094
2096,2046,2037,2040,0092
1855,2033,2021,2019,0090
2107,2041,2025,2022,0088
2163,2046,2037,2043,0087
1882,2051,2033,1996,0085
2053,2065,2099,2052,0084
2228,2067,2023,2092,0083
1968,2079,2037,2081,0082
1964,2075,2026,2113,0080
2229,2065,2021,2022,0079
2008,2041,2042,2048,0078
1904,2071,2061,2080,0077
2190,2061,2045,2047,0076
2134,2058,2058,2061,0074
1847,2023,2031,2043,0073
2114,2060,2040,2050,0072
2200,2071,2015,2054,0071
1916,2069,1998,2048,0070
2021,2057,2031,2059,0070
2227,2072,2113,2078,0069
1975,2056,2117,2050,0069
1941,2049,2068,2038,0069
2224,2059,1985,2033,0069
2060,2062,1915,2045,0069
1883,2056,1986,2055,0069
2171,2063,2018,2055,0069
2137,2048,2060,2071,0069
1870,2056,2118,2054,0069
2076,2056,2028,2035,0070
2226,2075,2008,2034,0071
1921,2058,1958,2038,0072
1989,2050,2143,2089,0074
2235,2081,2307,2114,0076
1983,2057,2294,2071,0079
1919,2054,2080,2011,0082
2208,2053,1924,2015,0087
2099,2074,1968,2015,0091
1863,2050,2116,2120,0097
2171,2079,2071,2104,0102
2180,2065,1980,2082,0108
1893,2071,1983,2048,0115
2059,2063,2075,2074,0122
2221,2055,2092,2050,0129
1937,2059,1973,2022,0136
1979,2064,1891,2026,0144
2249,2059,1947,2056,0151
2026,2064,2044,2067,0159
1907,2070,2048,2054,0167
2227,2088,2113,2066,0175
2155,2098,2084,2102,0183
1922,2099,2024,2070,0191
2185,2105,1963,2065,0199
2214,2096,2083,2108,0207
1911,2088,2268,2130,0215
2035,2067,2225,2125,0223
2237,2081,2054,2068,0231
1959,2079,1930,2043,0239
1923,2027,2090,2037,0247
2222,2056,2162,2037,0255
2014,2034,1989,1990,0263
1858,2017,1840,1954,0271
2150,2025,1833,2006,0280
2096,2015,1965,2020,0287
1831,2003,1934,1969,0296
2050,1995,1915,1967,0304
2160,2011,1884,1975,0311
1870,2012,1960,2029,0319
1976,2011,1915,2006,0327
2181,2024,2144,2053,0335
1946,2048,2392,2173,0342
1912,2070,2374,2161,0350
2214,2072,2182,2112,0358
2112,2084,2046,2079,0366
1940,2091,1913,2023,0374
2194,2077,1888,1993,0383
2159,2067,1895,2003,0391
1878,2061,2116,2066,0400
2083,2079,2286,2164,0408
2215,2077,2124,2086,0417
1952,2050,1900,2000,0426
1998,2048,1857,1976,0435
2217,2069,2060,2135,0444
1989,2074,2192,2100,0453
1924,2057,2080,2069,0463
2202,2037,1833,1917,0472
2065,2041,1934,1988,0481
1881,2051,2052,2039,0490
2140,2070,2179,2139,0499
2173,2070,2037,2089,0509
1907,2066,1963,2030,0518
2061,2061,2134,2073,0527
2217,2087,2282,2115,0536
1978,2091,2043,2133,0545
2007,2089,1864,2015,0555
2236,2077,2090,2067,0564
2055,2080,2227,2078,0573
1915,2069,2209,2097,0583
2202,2079,2108,2107,0592
2118,2059,1904,2024,0601
1863,2040,1867,1978,0611
2097,2033,1784,1971,0620
2168,2051,2031,2080,0629
1899,2044,2109,2062,0639
2000,2033,2064,2024,0648
2230,2045,1997,2034,0657
1951,2039,1898,2025,0666
1937,2045,2024,2056,0675
2205,2056,2153,2113,0684
2050,2042,2099,2013,0693
1894,2048,1961,2024,0702
2185,2051,2057,2053,0711
2111,2060,2290,2059,0720
1866,2074,2539,2211,0729
2093,2056,2051,2033,0738
2210,2037,1512,1895,0747
1926,2046,1784,1956,0756
2086,2160,2413,2283,0764
2273,2130,2120,2142,0773
1969,2055,1842,1985,0782
1912,2016,2060,2038,0790
2203,2049,2351,2128,0799
2052,2075,1886,2021,0807
1864,2023,1736,1957,0816
2144,2029,1909,2008,0824
2113,2051,2305,2154,0832
1847,2065,2317,2079,0840
2083,2033,2011,1970,0849
2208,2012,1938,1930,0857
1875,2027,2011,2010,0865
1992,2063,1977,2093,0873
2230,2045,1743,1988,0881
1987,2073,2120,2125,0889
1902,2069,2009,2041,0897
2198,2068,2180,2061,0905
2109,2046,1700,1891,0913
1850,2019,1697,1883,0920
2175,2087,2369,2210,0928
2229,2123,2605,2258,0936
1923,2113,2323,2200,0943
2063,2045,1900,2015,0951
2201,2042,1945,1992,0959
1938,2068,2199,2095,0966
2001,2091,2145,2064,0974
2267,2059,1574,1901,0981
2039,2065,1898,2056,0988
1852,2025,1817,1988,0996
2164,2024,1749,1959,1003
2090,2034,2247,2117,1010
1864,2058,2503,2163,1017
2121,2083,2550,2162,1024
2220,2095,1894,1979,1031
1919,2077,1680,2033,1038
2056,2092,2227,2123,1044
2239,2062,2274,2183,1051
1943,2029,1903,1980,1058
1894,2003,1739,1887,1065
2235,2028,2136,2023,1071
2033,2098,2547,2245,1078
1893,2072,2185,2109,1084
2162,2030,1496,1891,1091
2123,2003,1653,1865,1097
1832,2032,2240,2101,1103
2106,2073,2059,2111,1108
2208,2060,1836,1985,1114
1894,2055,1781,1959,1119
2008,2047,2294,2144,1124
2216,2064,2481,2194,1129
1978,2049,1961,1992,1134
1960,2057,1687,1956,1139
2200,2043,1753,1994,1143
2069,2071,2159,2039,1147
1854,2043,1972,2087,1152
2155,2086,2441,2199,1156
2193,2087,2280,2112,1160
1871,2043,1965,1992,1163
2089,2066,1988,1947,1167
2230,2055,1741,1941,1171
1929,2084,2112,2134,1175
1967,2074,2251,2230,1178
2301,2091,2120,2134,1182
1963,2046,1742,1909,1185
1894,2043,2156,1934,1189
2239,2054,2330,2140,1193
2069,2041,2340,2141,1196
1884,2078,2190,2153,1200
2145,2025,1319,1845,1204
2164,2031,1647,1975,1207
1846,2030,2159,2047,1211
2049,2055,2263,2044,1214
2245,2055,1757,1908,1217
1903,2034,1763,1988,1221
1937,2055,2006,2083,1224
2221,2045,2119,2046,1227
2019,2076,2425,2186,1230
1858,1991,1919,1881,1233
2239,2108,2407,2211,1236
2114,2075,2071,2118,1239
1864,2091,2048,2149,1242
2160,2071,2049,1989,1246
2201,2061,2063,1957,1249
1881,1999,1411,1825,1252
1943,2031,1822,2072,1256
2294,2103,2466,2256,1259
1935,2045,2201,2082,1263
1903,1977,1449,1838,1266
2262,2000,1856,2108,1269
2079,2125,2467,2248,1273
1856,2120,2544,2204,1277
2312,2127,2073,2018,1280
2160,2016,1898,1973,1284
1828,2079,2617,2250,1288
2131,2119,2425,2166,1292
2227,2082,1813,1923,1296
1883,2072,1880,2046,1300
1975,2023,1775,1989,1304
2189,1946,1204,1711,1308
1961,1999,1746,1966,1312
1876,1996,2111,2120,1316
2203,2070,2117,2029,1320
2114,2087,1860,2005,1324
1887,2068,2226,2256,1328
2264,2209,2776,2459,1331
2162,2097,2307,2158,1335
1846,2050,2153,2021,1339
2043,2049,2260,2113,1343
2171,2054,2307,2110,1346
1888,2067,2118,2041,1350
1935,1906,0946,1554,1354
2175,1935,1733,1923,1358
1991,2101,2625,2324,1362
1895,2080,2373,2159,1366
2231,2074,1948,2026,1370
2095,2023,1699,1897,1373
1834,1990,1956,2006,1376
2146,2111,2214,2161,1379
2185,2039,1954,2034,1382
1844,2027,1819,1939,1384
2057,2066,1977,2031,1386
2219,2018,1688,1935,1388
1899,2013,1749,1944,1389
1960,2040,2202,2120,1389
2200,2049,2338,2071,1390
2030,2105,2466,2216,1390
1920,2113,2198,2117,1389
2246,2117,2222,2151,1389
2133,2081,2107,2093,1389
1887,2057,1967,2009,1388
2130,2070,1969,2056,1388
2222,2078,2008,2071,1387
1892,2057,2024,2048,1386
2023,2041,1979,2035,1384
2251,2060,1933,2048,1383
1942,2045,1859,2012,1381
1945,2059,2032,2043,1380
2235,2069,2157,2084,1378
2032,2079,2050,2025,1375
1860,2025,1744,1942,1373
2185,2041,1993,2051,1370
2118,2091,2303,2168,1367
1899,2075,2280,2106,1364
2112,2106,2285,2169,1360
2251,2087,2096,2107,1356
1844,2073,2128,2091,1352
2052,2075,1951,2003,1348
2235,2053,1898,2000,1344
2006,2065,2026,2067,1340
1946,2076,2072,2067,1336
2222,2061,1923,2006,1332
2059,2051,1966,2034,1327
1861,2062,2063,2059,1322
2149,2072,2055,2077,1317
2141,2046,1982,2064,1312
1837,2018,1939,1973,1306
2063,2048,2167,2043,1300
2208,2054,2219,2073,1294
1913,2063,2102,2081,1287
1980,2066,2094,2107,1281
2263,2069,1984,2033,1274
1983,2053,1955,2004,1267
1913,2067,2026,2034,1261
2221,2079,2112,2105,1254
2105,2088,2194,2133,1247
1881,2062,2010,2040,1241
2135,2042,1900,1983,1234
2184,2059,1961,2019,1227
1883,2058,2058,2080,1220
2075,2075,2058,2056,1213
2261,2062,1942,2001,1206
1952,2067,1979,2059,1198
1977,2089,2087,2125,1190
2251,2075,2207,2126,1182
2041,2073,2204,2114,1174
1878,2044,2040,2023,1165
2176,2037,2071,2043,1156
2088,2033,2078,2060,1148
1832,2016,1950,1976,1140
2107,2041,1969,2038,1131
2202,2065,2007,2057,1123
1921,2084,2125,2103,1114
2040,2069,2077,2062,1106
2256,2072,2041,2052,1097
1962,2060,1981,2035,1089
1925,2044,1914,2016,1080
2226,2049,1868,1968,1071
2031,2019,1829,1956,1062
1819,2023,2050,2051,1052
2170,2062,2224,2140,1043
2168,2075,2310,2171,1033
1889,2071,2216,2121,1023
2113,2019,2043,2020,1014
2205,2047,1929,2006,1004
1876,2047,1979,2049,0995
1967,2034,1977,2029,0986
2252,2061,2036,2069,0977
1957,2045,2077,2035,0968
1905,2041,1968,2040,0959
2198,2028,1897,1973,0950
2084,2072,2064,2070,0941
1918,2083,2079,2112,0932
2209,2103,1972,2070,0923
2189,2084,2032,2101,0913
1897,2065,2112,2096,0904
2054,2057,2275,2119,0895
2232,2064,2198,2061,0886
1921,2052,1981,2008,0877
1954,2039,1892,2002,0869
2211,2045,2006,2056,0860
1983,2042,2053,2025,0852
1894,2059,2110,2051,0844
2212,2071,2073,2060,0836
2099,2071,1994,2046,0829
1895,2071,1980,2042,0821
2166,2070,1933,2012,0813
2190,2083,1928,2064,0806
1877,2069,2054,2070,0798
2070,2050,2106,2068,0790
2225,2056,2161,2077,0783
1923,2013,1828,1937,0775
1925,2006,1891,2004,0767
2219,2049,2171,2115,0760
2025,2080,2317,2145,0752
1903,2071,2272,2147,0745
2209,2071,2033,2035,0738
2132,2086,1997,2040,0732
1882,2075,2057,2053,0725
2112,2043,1975,2017,0719
2196,2065,1957,2029,0713
1895,2044,1981,2017,0708
2011,2046,2027,2048,0702
2238,2048,2021,2033,0697
1947,2035,2008,2022,0691
1910,2045,2002,2039,0685
2199,2025,1948,2003,0679
2032,2025,1899,1989,0673
1876,2064,1999,2034,0667
2202,2088,2147,2130,0661
2141,2065,2186,2100,0654
1858,2047,2157,2069,0647
2098,2064,2002,2035,0640
2205,2048,1944,2022,0634
1912,2052,2048,2066,0627
1989,2053,2160,2087,0620
2233,2067,2178,2071,0613
1981,2060,2083,2057,0607
1918,2056,1985,2031,0600
2244,2076,2022,2073,0594
2089,2070,2036,2047,0588
1880,2048,1975,2036,0582
2146,2063,1992,2061,0576
2169,2053,1989,2064,0570
1875,2060,2023,2049,0564
2060,2041,2017,2040,0558
2265,2089,2048,2085,0552
1911,2048,2099,2059,0546
1980,2049,2067,2050,0540
2223,2036,2034,2030,0535
1966,2041,1961,2032,0529
2012,2137,2071,2130,0523
2205,2061,2031,2050,0517
2117,2067,2139,2073,0512
1872,2049,2152,2060,0506
2131,2063,2118,2066,0501
2181,2074,2059,2059,0495
1900,2067,2001,2048,0490
2042,2048,1994,2038,0485
2205,2056,2009,2040,0480
1947,2059,2007,2048,0475
1965,2058,2016,2054,0471
2228,2063,2027,2057,0466
2049,2072,2047,2065,0461
1905,2059,2050,2057,0457
2208,2064,2057,2063,0452
2112,2047,2018,2035,0448
1838,2015,1996,2014,0443
2094,2034,2020,2047,0438
2203,2077,2048,2076,0434
1920,2067,2065,2073,0429
2036,2064,2061,2053,0424
2197,2050,2058,2034,0420
1952,2049,2030,2029,0415
1940,2053,2041,2052,0410
2218,2048,2055,2066,0405
2069,2074,2098,2069,0400
1880,2057,2075,2056,0395
2164,2059,2061,2051,0390
2167,2071,2058,2063,0385
1874,2053,2021,2044,0380
2110,2089,2055,2079,0375
2228,2068,2051,2068,0370
1923,2062,2032,2063,0365
1986,2049,2023,2045,0360
2231,2061,2045,2068,0356
1968,2043,2023,2037,0351
1941,2059,2041,2048,0347
2181,2048,2022,2034,0342
2127,2119,2088,2097,0338
1889,2059,2031,2045,0333
2133,2064,2026,2039,0329
2176,2053,2055,2075,0325
1864,2038,2030,2032,0321
2069,2058,2059,2049,0317
2219,2062,2040,2045,0313
1937,2066,2036,2059,0310
1993,2071,2059,2073,0306
2239,2065,2052,2059,0303
1993,2041,2040,2041,0299
1915,2063,2056,2077,0296
2182,2033,2003,2027,0293
2104,2069,2072,2079,0290
1888,2042,2027,2024,0287
2129,2048,2049,2050,0285
2165,2048,2034,2047,0282
1876,2052,2032,2048,0280
2061,2064,2055,2066,0278
2224,2074,2036,2042,0276
1946,2060,2049,2043,0274
1964,2062,2051,2064,0272
2252,2071,2056,2071,0270
2033,2058,2056,2072,0268
1889,2052,2033,2045,0267
2198,2078,2050,2068,0265
2121,2052,2055,2065,0263
1868,2048,2023,2023,0261
2120,2073,2104,2079,0259
2198,2064,2039,2043,0257
1913,2068,2049,2063,0255
2025,2058,2044,2054,0253
2231,2066,2043,2055,0251
1971,2063,2040,2045,0249
1941,2053,2064,2051,0247
2214,2052,2050,2056,0245
2051,2051,2042,2059,0243
1885,2049,2032,2043,0241
2162,2051,2044,2034,0239
2138,2059,2049,2060,0237
1880,2055,2045,2068,0235
2106,2074,2038,2056,0234
2221,2072,2066,2058,0233
1907,2049,2031,2020,0231
2014,2057,2054,2075,0230
2230,2062,2039,2087,0229
1963,2047,1996,2024,0227
1911,2037,2045,2055,0226
2161,2012,1998,2029,0224
2082,2057,2054,2075,0222
1868,2044,2008,2014,0220
2135,2047,2027,2019,0218
2151,2045,2075,2079,0215
1878,2043,1999,2007,0213
2048,2040,2026,2052,0210
2218,2069,2043,2062,0207
1936,2054,2033,2037,0205
1983,2063,2051,2068,0202
2238,2075,2056,2073,0199
2031,2076,2053,2071,0196
1904,2066,2050,2051,0194
2188,2053,2043,2046,0191
2121,2075,2046,2049,0188
1900,2067,2064,2073,0186
2161,2083,2066,2053,0184
2193,2073,2075,2081,0181
1907,2083,2080,2077,0179
2048,2078,2049,2069,0177
2220,2049,2039,2059,0175
1955,2069,2055,2056,0173
1941,2038,2042,2041,0171
2227,2059,2048,2047,0170
1981,2034,2017,2046,0168
1908,2066,2024,2047,0166
2192,2080,2043,2061,0164
2121,2057,2053,2054,0162
1903,2064,2061,2063,0160
2103,2061,2030,2037,0158
2200,2069,2039,2059,0156
1903,2062,2035,2052,0155
2003,2048,2034,2037,0153
2256,2067,2047,2058,0151
1965,2057,2047,2051,0149
1939,2059,2037,2046,0148
2166,2010,2004,2015,0146
2065,2068,2023,2065,0144
1889,2060,2057,2072,0143
2169,2064,2050,2057,0141
2150,2043,2020,2035,0139
1860,2051,2030,2045,0137
2084,2066,2039,2059,0136
2214,2053,2055,2056,0134
1915,2052,2038,2027,0132
1959,2027,2016,2042,0130
2245,2067,2029,2053,0128
2000,2062,2056,2035,0127
1909,2043,2043,1995,0125
2208,2056,2019,2081,0123
2079,2052,1990,2038,0122
1878,2056,2017,2065,0120
2152,2060,2048,2039,0118
2146,2047,2032,2063,0116
1890,2067,2044,2066,0114
2072,2066,2043,2071,0112
2216,2058,2042,2039,0109
1929,2055,2064,2048,0107
1957,2043,2043,2057,0104
2227,2057,2037,2052,0102
2020,2071,2050,2065,0099
1915,2059,2048,2053,0097
2199,2062,2056,2059,0094
2100,2051,2043,2042,0092
1897,2059,2045,2030,0090
2114,2050,2031,2008,0088
2170,2046,2012,1975,0086
1897,2055,2055,2070,0084
2018,2044,1987,1998,0083
2256,2094,2066,2044,0081
1981,2080,2078,2128,0080
1963,2073,1952,2051,0078
2224,2065,2033,2113,0076
2033,2047,2001,2032,0074
1877,2031,2018,2002,0072
2173,2055,2069,2067,0069
2120,2058,2039,2041,0066
1887,2045,2036,2018,0064
2085,2041,2046,2032,0061
2200,2066,2062,2055,0058
1916,2051,2036,2027,0055
2018,2052,2017,2002,0052
2249,2095,2028,2061,0050
1971,2061,2046,2049,0048
1946,2061,2053,2049,0046
2219,2055,2038,2055,0044
2058,2058,2041,2081,0042
1872,2045,2037,2060,0041
2158,2046,2022,2026,0040
2135,2037,2042,2023,0038
1858,2042,2054,2023,0037
2028,2005,2008,2003,0036
2255,2097,2105,2088,0035
1927,2076,1993,1999,0034
2011,2073,2109,2154,0033
2246,2064,2007,2063,0032
1993,2072,2070,2125,0031
1923,2063,2025,2070,0029
2226,2061,2038,2029,0027
2096,2059,2060,2060,0025
1873,2057,2047,2055,0023
2158,2061,2047,2041,0022
2173,2063,2063,2056,0020
1887,2055,2061,2060,0018
2078,2073,2004,2052,0016
2210,2045,1956,2037,0015
1955,2071,1982,2068,0014
1971,2054,2037,2072,0014
2251,2079,2125,2091,0013
2030,2065,2103,2063,0013
1884,2031,2042,2028,0013
2171,2039,2004,2019,0013
2077,2039,2038,2048,0013
1871,2049,2093,2044,0013
2107,2034,2075,2026,0013
2183,2064,2041,2043,0013
1909,2052,2053,2062,0013
2047,2067,2103,2068,0014
2225,2063,2144,2067,0016
1966,2076,2057,2054,0017
1964,2065,1967,2048,0020
2238,2075,1860,2049,0023
2037,2059,1914,2045,0026
1889,2048,1992,2060,0030
2173,2048,2214,2093,0034
2133,2068,2209,2058,0039
1880,2048,2096,2021,0044
2096,2046,1944,2022,0050
2188,2055,1924,2039,0055
1912,2053,1956,2030,0062
2016,2047,1982,2019,0068
2246,2078,2022,2034,0075
1989,2059,1966,2047,0081
1938,2046,1919,2045,0088
2205,2051,2137,2067,0096
2066,2066,2263,2126,0103
1906,2073,2237,2083,0111
2184,2082,2053,2073,0119
2181,2083,2137,2082,0127
1918,2098,2243,2155,0136
2099,2079,2103,2056,0145
2219,2089,1983,2063,0154
1933,2072,2071,2102,0163
1986,2069,2121,2104,0173
2232,2060,1986,2044,0183
1995,2034,1812,2004,0193
1887,2023,1987,2014,0203
2173,2032,2150,2066,0214
2061,2048,2001,1995,0225
1881,2040,1713,1932,0236
2140,2036,1780,2003,0247
2162,2040,2054,2027,0258
1853,2028,2200,2082,0269
2039,2045,2179,2044,0280
2213,2063,1978,2062,0292
1926,2061,2175,2087,0303
1962,2080,2271,2129,0315
2229,2075,2346,2129,0327
2025,2088,2054,2078,0338
1925,2069,1675,1952,0350
2226,2081,1613,1967,0363
2141,2106,2048,2125,0375
1904,2070,2060,2090,0387
2111,2042,2043,2014,0399
2142,2043,1935,1966,0411
1841,2024,2187,2045,0424
2003,2030,2320,2091,0436
2189,2007,2067,2063,0448
1942,2041,1883,2002,0461
1966,2064,1994,2065,0473
2275,2083,2209,2102,0486
2073,2053,2157,2050,0498
1926,2045,1878,1988,0511
2179,2049,1805,1999,0523
2115,2060,2143,2124,0536
1883,2064,2385,2169,0548
2119,2073,2160,2117,0561
2216,2081,1637,1931,0573
1903,2065,1741,2025,0585
2013,2062,2100,2085,0598
2208,2040,2299,2116,0610
1984,2064,2130,2086,0622
1951,2061,1944,1996,0634
2218,2078,2083,2067,0647
2075,2066,2276,2102,0659
1886,2053,2126,2065,0671
2143,2062,2081,2089,0683
2125,2051,1859,1999,0695
1931,2083,1910,2067,0706
2135,2118,2273,2183,0718
2243,2093,2441,2166,0730
1959,2085,2231,2101,0741
2028,2059,1745,1976,0753
2197,2066,1634,1966,0764
2000,2047,1764,1987,0775
1922,2018,2084,2022,0786
2154,2016,2079,2040,0797
2052,2028,1931,1964,0808
1851,2029,2068,2062,0818
2144,2034,2130,2082,0829
2135,2053,2197,2128,0839
1892,2070,2260,2067,0849
2036,2037,2121,2072,0859
2197,2033,2053,2035,0869
1939,2015,1718,1927,0879
1939,2004,1650,1896,0888
2184,2024,2148,2071,0898
2000,2042,2076,2047,0907
1850,2014,1934,1950,0916
2209,2065,1831,1941,0925
2124,2074,1986,2076,0933
1867,2080,2147,2091,0942
2130,2041,1712,1968,0950
2175,2031,2041,2121,0958
1835,2047,2650,2167,0966
2088,2113,2865,2335,0975
2267,2114,2067,2033,0983
2035,2104,1430,1935,0991
2020,2131,1935,2059,0999
2301,2147,2398,2218,1008
2099,2143,2494,2231,1016
1943,2071,1941,2028,1024
2184,2035,1805,1903,1032
2075,2027,1804,1960,1040
1825,2010,1785,1967,1048
2053,1993,1873,2047,1055
2181,2027,1687,1984,1063
1829,1997,1852,1978,1070
1948,1993,2245,1992,1076
2237,2042,2373,2073,1083
2021,2124,2079,2165,1090
1980,2109,1925,2163,1096
2231,2062,2285,2115,1103
2064,2070,2451,2057,1110
1890,2093,2091,2067,1116
2189,2074,2070,2117,1123
2193,2072,1854,1976,1129
1840,2025,2047,2056,1136
2060,2060,2145,2069,1142
2215,2048,1928,2038,1148
1856,2010,1559,1915,1155
1919,1996,1877,2018,1161
2254,2030,1902,2016,1167
2032,2063,2344,2086,1173
1979,2125,2357,2175,1178
2229,2041,1724,1936,1184
2075,2103,2433,2276,1189
1891,2099,2402,2139,1195
2193,2068,1449,1846,1200
2120,1967,1456,1802,1206
1851,2042,2373,2219,1211
2034,2085,2428,2176,1217
2242,2084,2250,2180,1223
1902,1985,1929,1865,1228
1978,2015,2173,1972,1234
2233,2117,2197,2106,1240
2025,2097,1721,2004,1245
1933,2017,1526,1858,1251
2206,2064,2033,2033,1257
2126,2115,2492,2164,1263
1927,2092,1872,2089,1268
2127,2010,1546,1896,1274
2086,1918,2075,2155,1279
1839,1957,2292,2064,1285
2024,2066,2200,2011,1290
2168,2006,2209,2089,1295
1892,1883,1695,1872,1301
1877,1766,2025,1996,1306
2271,2181,2285,2113,1311
2069,2223,2100,2120,1316
1913,2214,1723,1978,1321
2128,2070,1884,1939,1326
2282,2293,2257,2182,1331
1906,2321,2062,2113,1335
2187,2167,2268,2196,1339
2233,2001,2097,2067,1343
1827,1947,1862,1901,1347
1953,1991,1919,2017,1351
2283,1974,2047,2139,1355
2013,2021,2098,2105,1358
1910,2010,2063,2039,1361
2255,2015,2045,2028,1364
2062,2036,2095,2063,1366
1835,2021,2010,2049,1368
2188,2051,1927,2016,1369
2138,1992,1927,2013,1371
1849,2104,2115,2122,1372
2061,2070,2110,2107,1372
2232,2047,2102,2094,1372
1874,2042,2034,1992,1372
2004,2080,2126,2173,1372
2248,2057,2035,2020,1372
2007,2076,2153,2079,1371
1925,2064,2139,2073,1370
2219,2072,2062,2058,1369
2088,2065,2032,2069,1368
1869,2047,1983,2000,1367
2144,2037,1984,2019,1366
2197,2056,2011,2066,1364
1848,2056,2019,2047,1362
2094,2052,1975,2019,1360
2255,2062,2007,2053,1358
1897,2042,1919,2057,1355
1932,2031,1863,1967,1352
2269,2096,2124,2097,1349
2038,2087,2147,2089,1346
1933,2105,2330,2188,1343
2222,2103,2254,2144,1339
2071,2070,2032,2021,1335
1854,2061,2113,2053,1331
2111,2054,2048,2066,1327
2217,2090,2047,2072,1323
1914,2066,2091,2075,1318
2022,2067,1977,2030,1314
2230,2052,1924,2002,1310
1952,2047,1985,2031,1305
1920,2038,2006,2034,1300
2215,2062,2013,2050,1295
2030,2043,1962,2007,1290
1840,1986,1584,1795,1284
2188,2037,2037,2061,1279
2159,2116,2381,2242,1273
1871,2107,2356,2197,1266
2147,2095,2107,2073,1260
2231,2072,1934,1997,1254
1885,2069,2048,2069,1247
2038,2099,2149,2131,1241
2278,2075,1978,2034,1235
1982,2067,2021,2027,1229
1893,2049,2071,2031,1222
2212,2023,1945,1979,1216
2055,2047,1984,2023,1210
1862,2049,2041,2063,1203
2190,2052,1958,2036,1196
2153,2056,1995,2043,1190
1869,2031,1897,1959,1182
2068,2059,2081,2087,1175
2216,2070,2114,2103,1167
1881,2033,2018,2091,1159
1979,2076,2177,2089,1151
2237,2062,2177,2094,1143
1992,2061,2181,2080,1136
1903,2053,2100,2077,1128
2221,2056,1958,2018,1120
2076,2081,2010,2049,1113
1878,2072,1997,2038,1106
2178,2066,1968,2031,1099
2186,2056,1956,2020,1092
1884,2038,1862,1943,1084
2058,2045,2021,2051,1077
2207,2043,2178,2120,1069
1944,2071,2169,2124,1062
2019,2077,1993,2068,1054
2253,2059,1898,2015,1045
2051,2077,2063,2057,1037
1889,2060,2207,2119,1029
2182,2062,2244,2106,1020
2093,2054,2114,2049,1012
1871,2057,2038,2040,1004
2127,2060,1988,2031,0996
2213,2081,1992,2049,0987
1907,2070,1984,2034,0979
2079,2095,2025,2061,0971
2254,2057,1959,2015,0963
1944,2033,1998,2050,0955
1880,2011,1933,1988,0947
2208,2030,1971,2019,0938
1984,2043,2136,2158,0930
1915,2035,2106,2079,0921
2166,2034,2097,2063,0913
2134,2041,2004,2005,0905
1871,2066,2083,2073,0897
2057,2035,2110,2073,0890
2197,2053,2083,2072,0882
1939,2090,2028,2031,0875
2012,2087,1989,2048,0868
2267,2078,2029,2053,0862
2006,2071,2057,2047,0855
1910,2047,2014,2009,0849
2199,2042,1957,2001,0842
2069,2030,1877,1957,0836
1837,2026,1956,1997,0829
2124,2047,2037,2061,0822
2202,2072,2046,2096,0815
1879,2057,2031,2090,0807
2106,2073,2056,2058,0800
2210,2053,2192,2083,0792
1901,2054,2290,2117,0785
1944,2037,2198,2097,0777
2232,2075,2086,2075,0770
2015,2060,1992,2035,0763
1939,2063,1984,2035,0757
2236,2063,1984,2033,0751
2083,2044,1962,2012,0744
1856,2036,1976,2013,0739
2100,2029,1955,2015,0733
2154,2047,1992,2034,0727
1925,2069,2037,2060,0721
2040,2052,2016,2047,0715
2248,2065,2048,2068,0709
1911,2032,1960,2011,0702
1963,2050,1915,2005,0696
2221,2080,2032,2083,0689
2031,2070,2107,2088,0682
1899,2062,2223,2131,0675
2172,2058,2161,2070,0668
2139,2080,2081,2057,0661
1883,2082,2137,2092,0654
2137,2069,2126,2070,0648
2197,2078,2091,2073,0641
1873,2065,2013,2041,0635
2115,2083,2001,2052,0628
2272,2101,2028,2077,0623
2019,2090,2007,2052,0617
1954,2058,1971,2032,0611
2203,2043,2000,2046,0605
2034,2052,2035,2061,0599
1857,2035,2029,2038,0593
2151,2033,2007,2026,0588
2123,2050,1993,2036,0582
1866,2053,2006,2048,0576
2106,2031,2040,2060,0570
2194,2042,1996,2038,0564
1886,2036,1964,2027,0558
1999,2050,1995,2063,0552
2227,2045,2147,2068,0545
1967,2048,2236,2085,0539
1967,2080,2190,2066,0532
2203,2055,2069,2041,0526
2085,2069,2032,2056,0519
1894,2063,2015,2053,0512
2111,2033,1978,2015,0506
2178,2062,2005,2049,0499
1901,2073,2022,2059,0493
2065,2053,2011,2045,0486
2255,2074,2046,2079,0480
1961,2094,2058,2072,0473
2003,2082,2074,2095,0467
2256,2063,2060,2068,0461
1988,2046,2035,2047,0454
1904,2051,2034,2049,0448
2206,2066,2059,2061,0441
2087,2040,2029,2051,0435
1881,2067,2050,2053,0428
2157,2082,2059,2090,0422
2203,2099,2067,2088,0416
1877,2045,2027,2017,0409
2064,2074,2076,2065,0403
2206,2058,2050,2055,0396
1950,2080,2052,2066,0389
1968,2061,2031,2044,0383
2246,2096,2058,2068,0376
2064,2077,2064,2050,0369
1898,2061,2051,2053,0363
2191,2060,2046,2062,0356
2126,2047,2025,2047,0350
1862,2037,2015,2029,0343
2099,2028,2037,2041,0337
2186,2054,2055,2051,0331
1865,2036,2033,2033,0325
2001,2042,2024,2044,0319
2227,2047,2027,2045,0313
1951,2049,2044,2053,0308
1943,2045,2058,2050,0303
2227,2057,2053,2037,0297
2063,2070,2054,2060,0292
1885,2054,2040,2045,0288
2163,2047,2040,2030,0283
2146,2071,2070,2098,0279
1860,2037,2001,2038,0274
2063,2031,2004,2050,0270
2245,2092,2058,2090,0266
1911,2065,2015,2033,0262
2023,2084,2089,2099,0259
2242,2050,2034,2036,0255
1995,2065,2052,2049,0251
1916,2056,2061,2040,0247
2247,2081,2061,2048,0244
2095,2062,2079,2069,0240
1868,2059,2042,2053,0236
2139,2055,2065,2093,0231
2171,2051,2024,2057,0227
1862,2043,2013,2023,0223
2072,2070,2048,2067,0218
2259,2079,2052,2073,0213
1919,2042,2028,2046,0209
1963,2050,2045,2046,0204
2252,2059,2045,2050,0200
2015,2063,2058,2049,0196
1906,2072,2072,2075,0192
2205,2067,2035,2041,0189
2098,2049,2029,2038,0185
1873,2059,2025,2028,0182
2147,2081,2092,2096,0180
2151,2027,1988,1976,0177
1889,2062,2088,2099,0174
2042,2053,2027,2079,0172
2260,2093,2061,2118,0169
1942,2044,2036,2077,0167
1942,2051,2040,2038,0165
2232,2076,2091,2080,0162
2025,2049,2020,2047,0160
1872,2052,2009,2017,0157
2204,2059,2042,2057,0155
2145,2080,2076,2080,0152
1904,2063,2058,2061,0150
2107,2058,2046,2054,0147
2187,2066,2050,2057,0145
1923,2067,2056,2055,0143
2012,2047,2038,2042,0141
2214,2057,2024,2027,0139
1971,2066,2055,2072,0138
1937,2048,2031,2021,0136
2236,2061,2032,2061,0135
2068,2065,2094,2049,0135
1907,2067,2115,2147,0134
2168,2069,2021,2043,0133
2123,2049,2016,2064,0133
1885,2054,1983,2032,0132
2068,2043,2023,2031,0131
2202,2069,2064,2077,0130
1913,2051,2021,2019,0129
1984,2037,2039,2047,0127
2232,2058,2046,2045,0126
1979,2048,2050,2058,0124
1918,2059,2037,2027,0122
2213,2053,2047,2046,0120
2065,2052,2037,2034,0119
1864,2052,2012,1989,0117
2131,2048,2019,1975,0116
2163,2067,2089,2148,0115
1875,2050,2048,2072,0113
2075,2074,2016,2052,0112
2232,2079,2059,2082,0111
1923,2072,2023,2029,0110
1966,2050,2029,2088,0108
2238,2060,2017,2038,0107
1989,2047,2057,2038,0105
1910,2063,2073,2066,0104
2274,2131,2033,2075,0102
2110,2073,2053,2068,0100
1871,2064,2043,2049,0098
2159,2071,2051,2041,0096
2178,2061,2042,2042,0094
1891,2059,2056,2039,0092
2039,2032,2032,2042,0090
2248,2067,2071,2059,0088
1928,2048,2041,2047,0086
1928,2048,2039,2058,0084
2234,2051,2023,2031,0082
2025,2057,2023,2012,0081
1881,2060,2083,2075,0079
2214,2077,1998,2041,0078
2122,2063,2049,2102,0077
1876,2065,2032,2064,0075
2106,2043,2025,2020,0074
2196,2058,2058,2078,0073
1904,2055,2041,2050,0071
2011,2059,2041,2055,0070
2259,2070,2041,2046,0069
1969,2053,2042,2043,0068
1909,2042,1987,2029,0066
2217,2052,1967,2027,0065
2066,2058,1928,2029,0064
1895,2066,1984,2062,0064
2171,2056,2034,2051,0063
2143,2053,2101,2070,0062
1874,2061,2146,2084,0062
2072,2057,2151,2102,0062
2209,2061,2095,2053,0062
1919,2061,2013,2027,0062
1981,2061,1989,2061,0062
2259,2077,2044,2063,0063
1998,2045,2167,2073,0063
1932,2057,2144,2040,0064
2206,2052,2024,2009,0065
2086,2056,1943,2017,0066
1877,2056,1961,2052,0068
2137,2056,2051,2040,0070
2159,2063,2110,2109,0073
1898,2061,2079,2059,0076
2060,2056,2089,2087,0080
2219,2069,1997,2039,0085
1935,2057,1992,2044,0090
1955,2051,2124,2079,0095
2242,2069,2200,2084,0101
2039,2063,2091,2034,0107
1919,2051,1941,1993,0114
2231,2081,1910,2065,0120
2124,2067,1829,2021,0128
1899,2066,1768,2044,0135
2149,2065,1781,2015,0143
2177,2054,2148,2117,0150
1896,2060,2387,2131,0159
2005,2047,2405,2101,0167
2226,2060,2318,2097,0176
1933,2059,2184,2047,0185
1932,2053,2040,2040,0195
2224,2063,1946,2039,0205
2037,2052,1713,2009,0215
1900,2038,1811,2035,0226
2190,2064,2127,2057,0237
2137,2079,2217,2085,0248
1883,2074,2025,2024,0259
2110,2057,1943,2057,0271
2215,2071,1942,2028,0283
1916,2079,2221,2110,0295
2023,2065,2009,2064,0307
2239,2066,2124,2083,0319
1978,2065,2101,2047,0332
1931,2072,2103,2056,0344
2223,2065,2017,2025,0357
2121,2122,1789,2026,0370
1901,2079,1822,2041,0383
2166,2060,1837,2024,0396
2116,2019,1607,1989,0409
1831,2013,2057,2027,0422
2055,2047,2051,2003,0435
2185,2029,2458,2039,0448
1891,2019,2797,2207,0461
1945,2027,2673,2113,0474
2250,2072,2000,1970,0487
2009,2087,1479,1894,0501
1951,2047,1767,2072,0515
2218,2029,2257,2199,0528
2107,2068,2386,2170,0542
1900,2091,2065,2080,0556
2198,2130,1865,2071,0570
2173,2081,1757,2072,0584
1911,2077,1955,2097,0598
2049,2052,1944,2009,0612
2191,2035,1944,1993,0626
1925,2027,1951,1975,0640
1926,2034,2236,2127,0653
2163,2021,2364,2070,0666
1985,2038,2301,2072,0679
1920,2061,1807,1953,0692
2172,2065,1628,2005,0705
2087,2051,1888,2047,0717
1875,2044,2281,2069,0729
2099,2047,2521,2154,0741
2168,2041,2097,1978,0753
1903,2051,1731,1939,0765
2039,2043,1875,2023,0776
2264,2112,2225,2166,0788
2033,2128,2135,2181,0799
2040,2140,1805,2111,0810
2265,2090,1845,2002,0820
2054,2064,2067,2055,0831
1877,2032,2175,2003,0841
2144,2037,2054,2032,0852
2074,2025,2129,2055,0862
1811,1990,2314,2063,0872
2083,2033,2022,2008,0882
2185,2052,1805,2021,0892
1887,2045,1885,2051,0902
2015,2024,2300,2102,0912
2213,2056,2334,2038,0921
1967,2069,2098,2019,0931
1966,2049,1877,2019,0940
2288,2115,1458,2028,0950
2085,2138,1873,2169,0959
1852,2033,1898,2037,0968
2208,2062,2404,2105,0976
2149,2047,2509,2103,0985
1888,2038,1734,1933,0994
2080,2031,1891,1969,1002
2179,2043,2274,2062,1010
1855,2020,2431,2071,1019
1960,2048,2071,2064,1027
2254,2032,1464,1946,1035
1959,2047,1887,2042,1044
1857,1998,1857,1933,1052
2205,2028,2177,2075,1060
2077,2082,2463,2213,1068
1874,2080,1930,1985,1076
2165,2047,1828,1976,1084
2159,2015,1941,1951,1092
1893,2092,2214,2184,1100
2043,2068,2158,2100,1108
2259,2048,1769,1993,1116
1913,2061,2061,2041,1124
1991,2072,2092,2078,1132
2228,2061,1793,2020,1139
2040,2071,2093,2043,1147
1871,2065,2535,2137,1155
2249,2112,1950,2048,1163
2097,2014,1757,1958,1170
1840,2039,2024,2051,1178
2103,2038,2120,2014,1185
2269,2122,1953,2096,1193
1917,2081,1863,2091,1200
2084,2122,2560,2168,1207
2283,2100,2206,2104,1215
1910,1990,1093,1731,1221
1921,2037,1757,2061,1228
2309,2148,2600,2296,1235
2070,2123,2418,2162,1241
1965,2121,1878,2001,1247
2237,2002,2162,2112,1253
2128,2071,2309,2061,1259
1799,1999,2003,2056,1265
2063,2016,1515,1883,1271
2189,2048,1765,2045,1276
1882,2067,2314,2187,1282
2020,2094,2130,1998,1287
2211,2064,2355,2188,1292
1973,2026,1661,1826,1298
1862,1984,2012,1931,1303
2259,2128,2469,2344,1308
2079,2039,1927,1955,1313
1889,2059,2115,2173,1318
2179,2070,2119,2065,1323
2117,2016,1564,1852,1327
1892,2096,2001,2090,1332
2095,2136,2709,2403,1337
2232,2115,2176,2077,1342
1905,2076,2374,2169,1347
2009,2046,1768,1914,1352
2187,1973,1685,1800,1357
1933,1991,1711,1923,1362
1958,2096,2180,2199,1366
2201,2063,2298,2159,1371
2105,2157,2621,2319,1376
1841,1986,1439,1750,1380
2158,2003,1629,1903,1384
2122,2016,2376,2198,1388
1910,2141,2651,2272,1392
2023,2006,1574,1815,1395
2263,2069,1818,2040,1398
1907,2061,1979,2056,1401
1953,2046,1925,1992,1403
2245,2059,2083,2067,1405
2051,2109,2110,2107,1407
1893,2065,1990,2060,1408
2211,2042,1815,1966,1409
2130,2075,2215,2145,1409
1857,2053,2250,2130,1409
2124,2051,2097,2055,1409
2223,2083,2031,2113,1408
1874,2063,2032,2091,1408
2041,2073,2059,2063,1407
2260,2065,1996,2001,1407
1936,2038,1957,1977,1405
1934,2057,2145,2072,1404
2268,2084,1968,2025,1403
2038,2060,1923,2041,1401
1877,2069,2012,2085,1399
2225,2064,2051,2077,1397
2155,2079,2188,2087,1395
1851,2076,2137,2105,1393
2134,2082,2088,2052,1390
2236,2092,2178,2135,1388
1877,2063,2086,2052,1385
1999,2025,1983,2014,1383
2257,2059,1939,2015,1380
1901,2071,2087,2075,1376
1967,2080,2144,2078,1373
2243,2059,2017,2038,1370
2086,2049,1847,1991,1366
1844,2053,1986,2033,1362
2163,2044,1937,1998,1358
2134,2043,2007,2068,1354
1819,2059,2053,2058,1350
2093,2073,2141,2113,1345
2207,2078,2118,2096,1340
1900,2062,2080,2061,1335
2008,2062,2065,2047,1330
2256,2058,2078,2032,1325
1955,2036,1970,1962,1320
1907,2075,2100,2069,1314
2207,2076,2080,2068,1309
2078,2073,2158,2104,1303
1881,2065,1961,2020,1297
2137,2041,1848,1976,1291
2180,2051,1972,2034,1285
1855,2056,2140,2117,1279
2043,2053,2082,2070,1272
2241,2059,1960,2056,1266
1941,2056,1983,2053,1259
1951,2036,1968,2000,1252
2207,2053,2135,2069,1245
2040,2073,2200,2142,1238
1909,2093,2149,2123,1230
2249,2081,2117,2116,1223
2135,2066,2009,2019,1215
1887,2070,2048,2032,1208
2094,2038,2042,2028,1201
2203,2063,2132,2080,1193
1882,2038,1994,2032,1186
1998,2035,2006,2067,1178
2215,2037,1921,2001,1171
1933,2049,1923,1987,1163
1984,2100,2160,2125,1155
2244,2099,2119,2127,1147
2082,2079,2019,2062,1139
1891,2015,1768,1927,1131
2127,2010,1883,1987,1123
2110,2043,2222,2132,1115
1873,2059,2298,2134,1106
2104,2086,2222,2117,1098
2232,2083,1981,2027,1089
1929,2059,1956,2043,1080
1999,2051,2089,2058,1072
2252,2059,2129,2075,1064
1953,2047,2094,2055,1055
1912,2043,2031,2043,1047
2203,2034,1958,2006,1039
2051,2023,1952,1993,1031
1837,2015,1849,1980,1022
2127,2033,1963,2012,1014
2127,2048,2058,2073,1006
1883,2043,2043,2036,0997
2079,2056,1987,2067,0988
2221,2063,1936,2024,0979
1967,2082,2146,2090,0970
1967,2051,2235,2097,0960
2225,2058,2189,2073,0951
1997,2050,2058,2047,0942
1883,2041,1953,2029,0932
2209,2058,2047,2074,0923
2104,2071,2104,2078,0914
1881,2062,2063,2064,0906
2144,2064,2033,2058,0897
2204,2075,1933,2030,0888
1884,2075,1847,2033,0879
2067,2080,1821,2047,0870
2248,2074,1960,2049,0861
1970,2050,2128,2039,0852
1978,2060,2255,2074,0843
2258,2080,2229,2099,0834
2008,2060,2167,2079,0825
1899,2035,2094,2053,0816
2145,2016,2018,2004,0806
2165,2087,2025,2079,0797
1863,2050,2033,2057,0788
2118,2069,2074,2068,0778
2173,2018,1952,2004,0768
1841,2001,1813,1977,0759
2006,2054,1953,2048,0749
2241,2073,2019,2055,0739
1968,2057,2093,2063,0729
1944,2052,2045,2049,0719
2208,2032,1943,2013,0708
2039,2043,1962,2030,0698
1866,2048,2018,2047,0688
2161,2031,2137,2077,0677
2149,2070,2204,2104,0667
1897,2083,2122,2070,0656
2097,2086,2080,2065,0647
2235,2085,2005,2086,0637
1914,2056,2098,2059,0627
2035,2081,2041,2078,0618
2263,2072,1963,2043,0609
1993,2069,2025,2069,0600
1928,2054,2151,2080,0592
2210,2068,2184,2068,0583
2078,2061,2063,2038,0575
1867,2047,1938,2029,0567
2119,2027,1953,2031,0560
2160,2055,2041,2063,0552
1898,2076,1988,2040,0545
2060,2039,1946,2027,0538
2263,2096,1969,2079,0531
1935,2059,2116,2069,0524
1995,2073,2163,2084,0517
2252,2069,2156,2083,0510
2005,2053,2096,2055,0504
1896,2060,1982,2030,0497
2189,2045,2002,2043,0491
2096,2061,2049,2064,0485
1877,2057,2095,2068,0479
2115,2032,2100,2036,0473
2165,2070,2060,2048,0467
1881,2057,1999,2042,0461
2063,2060,2000,2053,0456
2234,2066,2039,2063,0451
1948,2063,2029,2058,0445
1986,2079,2046,2077,0440
2212,2061,2032,2056,0435
2058,2070,2043,2074,0430
1893,2056,2033,2054,0425
2180,2052,2041,2044,0420
2130,2050,2051,2049,0415
1857,2035,2043,2039,0410
2109,2067,2051,2066,0405
2214,2058,2063,2065,0400
1893,2066,2045,2054,0395
2032,2066,2053,2065,0390
2219,2039,2026,2043,0385
1961,2053,2048,2050,0380
1916,2046,2030,2040,0375
2236,2041,2035,2037,0371
2045,2053,2033,2047,0366
1890,2062,2053,2053,0361
2177,2060,2049,2063,0356
2150,2066,2050,2056,0352
1873,2051,2042,2045,0347
2083,2063,2051,2049,0343
2212,2053,2049,2053,0339
1907,2056,2039,2062,0335
1992,2052,2044,2059,0331
2241,2062,2051,2064,0327
1997,2071,2061,2066,0323
1935,2076,2081,2091,0319
2219,2059,2037,2055,0316
2105,2081,2052,2072,0312
1882,2057,2021,2043,0308
2157,2057,2041,2079,0305
2173,2058,2051,2052,0301
1881,2054,2072,2053,0298
2056,2053,2032,2040,0294
2226,2071,2065,2102,0291
1935,2056,2004,2025,0287
1971,2058,2038,2049,0284
2232,2058,2040,2049,0280
2017,2061,2040,2043,0277
1897,2049,2035,2059,0274
2210,2068,2052,2059,0271
2103,2057,2038,2041,0268
1867,2055,2056,2051,0266
2117,2045,2043,2029,0263
2183,2056,2055,2077,0260
1899,2062,2029,2040,0257
2036,2047,2031,2035,0254
2219,2040,2027,2036,0251
1951,2064,2053,2072,0248
1944,2057,2039,2062,0245
2247,2074,2027,2062,0242
2044,2059,2043,2049,0238
1901,2073,2072,2075,0234
2188,2068,2033,2033,0231
2126,2064,2059,2038,0227
1870,2054,2057,2059,0223
2106,2062,2050,2076,0219
2206,2064,2050,2069,0216
1903,2049,2024,2037,0212
2008,2047,2017,2022,0209
2221,2061,2065,2079,0205
1973,2053,2032,2062,0202
1959,2081,2045,2052,0199
2218,2064,2029,2038,0196
2067,2068,2064,2082,0193
1879,2043,2024,2015,0189
2153,2056,2084,2081,0186
2133,2048,2020,2035,0183
1899,2065,2056,2070,0180
2083,2056,2021,2046,0176
2202,2058,2075,2064,0173
1923,2053,2055,2067,0170
1982,2056,2042,2046,0166
2226,2048,2017,2019,0163
1992,2053,2031,2031,0159
1914,2046,2039,2018,0156
2198,2053,2073,2063,0153
2089,2065,2034,2061,0149
1874,2050,2027,2025,0146
2141,2061,2053,2099,0142
2169,2067,2023,2062,0139
1875,2049,2031,2043,0136
2067,2067,2028,2042,0132
2218,2064,2069,2076,0129
1924,2048,2052,2045,0125
1978,2055,2063,2054,0122
2227,2060,2030,2044,0118
2023,2068,2040,2060,0115
1914,2068,2067,2077,0112
2190,2058,2037,2041,0109
2111,2080,2067,2080,0106
1883,2059,2013,2012,0103
2116,2050,2076,2073,0101
2195,2056,2040,2036,0098
1903,2069,2096,2096,0096
2023,2042,1995,2029,0094
2233,2058,2073,2097,0092
1970,2079,2024,2077,0090
1936,2050,2037,2042,0088
2221,2044,2059,2051,0086
2051,2061,2049,2041,0084
1889,2058,2053,2051,0083
2190,2063,2032,2080,0081
2165,2104,2078,2099,0080
1863,2049,2027,2029,0078
2104,2069,2068,2072,0077
2212,2066,2013,2026,0075
1887,2038,2023,2048,0074
1981,2045,2036,2032,0073
2222,2045,2045,2036,0072
1995,2073,2051,2055,0070
1925,2059,2032,2059,0069
2219,2060,2005,2041,0068
2087,2070,2022,2065,0067
1853,2031,2003,2049,0067
2171,2070,2064,2080,0066
2167,2066,2047,2063,0065
1872,2060,1988,2021,0065
2078,2058,1933,2022,0065
2225,2074,1962,2061,0065
1914,2054,2117,2072,0065
2000,2067,2100,2076,0065
2238,2057,2138,2047,0065
1992,2063,2050,2048,0065
1908,2055,2087,2062,0066
2213,2061,2142,2079,0066
2078,2063,2061,2050,0067
1883,2059,1999,2058,0068
2152,2057,2134,2083,0069
2174,2061,2213,2077,0071
1901,2057,2226,2061,0073
2051,2061,1989,2017,0076
2229,2065,1846,2021,0079
1934,2054,1856,2036,0083
1979,2080,1948,2055,0087
2229,2063,2047,2084,0092
2037,2070,2016,2066,0096
1908,2059,2048,2043,0102
2191,2066,2144,2045,0107
2073,2057,2097,2058,0112
1915,2083,2046,2058,0118
2136,2066,1915,2037,0124
2221,2076,1904,2047,0130
1951,2062,2082,2068,0137
2008,2056,2040,2120,0143
2230,2069,2153,2098,0150
1959,2053,2216,2094,0157
1933,2045,2101,2015,0164
2212,2043,2077,2020,0171
2033,2048,1942,2045,0179
1869,2034,2027,2047,0187
2167,2068,2230,2139,0195
2131,2073,2098,2065,0203
1861,2050,2168,2063,0212
2081,2046,2011,2017,0221
2211,2058,1867,2007,0230
1917,2063,1763,2000,0240
2011,2061,1810,2025,0249
2254,2067,2099,2079,0259
2008,2051,2148,2072,0269
1919,2052,1991,2028,0279
2216,2066,1939,2028,0290
2085,2069,2088,2053,0300
1852,2047,2351,2124,0311
2133,2051,2250,2070,0322
2145,2043,2088,2089,0333
1872,2055,1882,2050,0344
2075,2062,1864,2004,0356
2220,2074,1985,2082,0367
1907,2036,2027,1993,0379
1967,2041,2007,2016,0392
2257,2088,2204,2095,0404
2048,2103,2235,2151,0416
1961,2120,2141,2095,0429
2240,2110,1939,2062,0442
2133,2087,2153,2131,0455
1877,2067,2364,2162,0468
2148,2040,2091,2088,0482
2166,2030,1600,1934,0495
1861,2038,1529,1908,0509
2016,2037,2024,2040,0522
2218,2048,2345,2131,0536
1978,2070,2243,2123,0550
1998,2091,1889,2028,0563
2233,2077,1688,1989,0577
2015,2043,2019,2031,0591
1855,2003,2404,2071,0604
2128,2021,2483,2089,0618
2087,2035,2060,1975,0631
1874,2034,1855,1947,0645
2119,2082,1774,2065,0659
2201,2070,1917,2088,0672
1942,2078,2056,2119,0685
2030,2060,2164,2048,0699
2185,2056,2249,2065,0712
1984,2064,2153,2089,0725
1905,2012,1736,1973,0738
2183,2027,1713,1947,0750
2059,2068,1898,2017,0763
1901,2050,2302,2094,0776
2179,2076,2544,2224,0788
2160,2053,2332,2080,0800
1913,2073,1955,2043,0812
2100,2086,1694,1949,0825
2248,2112,1744,2091,0837
1959,2069,1749,2021,0849
2024,2081,2107,2067,0860
2219,2093,2417,2134,0872
1985,2092,2301,2138,0884
1871,2027,1995,1987,0895
2143,1972,1845,1937,0906
2063,2022,2108,2071,0917
1868,2011,1767,1952,0928
2141,2033,1559,1919,0939
2134,2033,1921,1965,0949
1829,2040,2440,2146,0960
2054,2074,2494,2153,0970
2236,2065,1941,2009,0980
1931,2036,1814,1959,0991
1987,2060,2189,2155,1001
2250,2059,2063,2095,1011
2021,2081,1718,1992,1021
1913,2025,2015,2036,1031
2213,2103,2638,2228,1040
2084,2092,2161,2045,1050
1851,2044,1616,1891,1060
2157,2047,1656,1958,1070
2189,2057,2274,2116,1079
1884,2105,2448,2168,1088
2076,2081,2113,2086,1097
2267,2073,1921,2033,1106
1892,2021,1861,1950,1115
1911,2015,1755,1918,1123
2195,2012,1921,2023,1131
2008,1988,1962,1973,1139
1809,1971,2090,1945,1147
2157,2033,1964,2035,1154
2164,2070,2086,2106,1161
1895,2094,2154,2137,1168
2163,2090,2284,2089,1174
2203,2079,2123,2075,1180
1836,2056,1741,1976,1186
2002,2049,2119,2240,1192
2289,2067,2094,2106,1198
1973,2108,2238,2151,1203
1988,2069,1997,2058,1209
2263,2070,1998,2024,1215
2081,2048,2317,2030,1220
1822,2031,1966,1920,1225
2129,1983,1530,1807,1231
2145,1990,1538,1949,1236
1833,2032,2064,2143,1241
2069,2069,2251,2186,1246
2193,2091,2495,2222,1251
1936,2135,2681,2268,1256
2039,2098,2117,2047,1262
2228,2000,1626,1816,1267
2001,2041,1969,2021,1272
1894,2029,2047,2099,1277
2197,2088,1713,1976,1283
2091,2060,1854,2056,1288
1907,2067,2228,1983,1293
2126,2063,2664,2203,1299
2159,2027,1802,1946,1304
1886,2022,1807,2015,1309
2024,2042,2088,2059,1315
2243,2095,2132,2110,1320
1925,2008,1779,1900,1325
2012,2057,1802,1952,1331
2246,2087,2495,2221,1335
1996,2076,2124,2032,1340
1883,2003,1328,1879,1345
2207,2043,2193,2208,1349
2139,2117,2391,2084,1354
1855,2064,2030,1978,1358
2152,2075,2070,2067,1362
2166,2014,1698,1927,1366
1866,2073,2318,2248,1370
2047,2089,2157,2055,1374
2263,2057,2043,2036,1377
1945,2096,2136,2109,1381
1901,2037,1943,1987,1384
2220,2028,1898,1986,1387
2028,2041,2018,2025,1390
1863,2064,2144,2119,1393
2197,2049,1883,1965,1395
2116,2012,1786,1905,1397
1854,2047,2041,2052,1399
2081,2039,2080,2064,1401
2216,2040,1969,2008,1402
1869,2044,2017,2055,1403
2047,2082,1984,2039,1403
2227,1995,1838,1970,1403
2019,2105,2137,2089,1402
1908,2021,1948,2007,1402
2262,2081,2146,2091,1401
2091,2095,2232,2221,1400
1881,2091,2164,2169,1398
2195,2088,2218,2138,1396
2175,2073,2065,2021,1394
1852,2048,2110,2023,1392
2075,2048,2020,2022,1390
2253,2088,1939,2027,1387
1919,2069,2014,2047,1384
1991,2068,2064,2053,1382
2258,2074,2034,2051,1379
1972,2059,1990,2033,1376
1871,2033,1989,2022,1372
2183,2009,1741,1879,1369
2102,2058,1935,2025,1365
1888,2103,2240,2195,1360
2179,2089,2084,2133,1356
2202,2081,2155,2125,1351
1855,2045,2136,2067,1346
2032,2064,2206,2084,1340
2217,2064,2207,2096,1335
1926,2044,1886,1960,1330
1923,2031,1903,1979,1324
2245,2052,2050,2044,1319
2007,2056,1975,2015,1313
1868,2041,1951,2010,1307
2181,2053,2039,2057,1300
2099,2056,2035,2050,1294
1844,2041,1938,1984,1287
2084,2023,1913,1994,1279
2186,2068,2092,2106,1271
1872,2050,1930,2022,1263
2045,2086,1994,2071,1254
2218,2075,2080,2122,1244
2003,2088,2081,2112,1235
1948,2065,2206,2126,1225
2302,2071,2161,2061,1215
2113,2100,2238,2112,1206
1893,2096,2292,2168,1196
2159,2054,2057,2061,1187
2129,2031,1955,2005,1178
1855,2037,1907,1980,1168
2083,2042,1932,2001,1159
2177,2017,1919,1984,1150
1886,2029,1946,2003,1141
1952,2047,1966,2041,1131
2274,2092,2034,2091,1121
2009,2067,1966,2032,1111
1961,2051,1933,2005,1101
2267,2077,1971,2018,1090
2058,2037,1948,2007,1078
1875,2057,2207,2128,1067
2133,2038,2245,2109,1055
2184,2088,2308,2150,1043
1903,2096,2276,2161,1031
2096,2105,2112,2122,1019
2233,2072,1994,2059,1008
1913,2037,1927,1989,0996
1947,2031,1966,2023,0986
2205,2036,1975,2008,0975
1987,2038,1954,2002,0964
1860,2016,1919,1988,0954
2162,2026,1884,1996,0944
2090,2037,1928,2018,0934
1867,2025,1863,1994,0923
2130,2012,1843,1940,0913
2164,2044,2093,2053,0902
1861,2064,2338,2186,0891
2053,2071,2365,2209,0880
2243,2077,2251,2153,0869
1946,2051,2018,2019,0859
1956,2056,2019,2024,0848
2219,2061,2032,2026,0838
2039,2063,2000,2027,0828
1877,2042,1970,1996,0819
2183,2054,1993,2025,0809
2137,2068,1997,2043,0800
1881,2077,1991,2051,0791
2175,2115,1948,2080,0782
2241,2114,1978,2100,0773
1935,2066,1976,2063,0763
2013,2036,2007,2019,0754
2178,2019,1992,2019,0744
1956,2037,2191,2045,0734
1924,2046,2286,2082,0724
2251,2082,2230,2081,0715
2058,2057,2015,2030,0705
1870,2045,1960,2031,0695
2154,2051,2031,2047,0686
2128,2050,2036,2055,0676
1857,2050,1984,2035,0667
2077,2056,2030,2070,0658
2200,2061,2033,2065,0649
1933,2070,2007,2063,0640
2001,2051,1931,2026,0631
2218,2040,1831,1987,0623
1987,2050,1876,2042,0614
1901,2041,2157,2085,0605
2238,2076,2282,2111,0597
2085,2063,2249,2075,0588
1865,2040,2049,2008,0580
2099,1995,1946,1984,0572
2183,2069,2067,2073,0564
1892,2058,2078,2075,0556
2063,2068,2055,2064,0549
2253,2090,2047,2080,0541
1933,2070,2041,2063,0534
1990,2070,2076,2070,0527
2243,2061,2077,2061,0520
2034,2080,2042,2051,0513
1911,2073,1988,2049,0507
2197,2067,2014,2060,0500
2110,2065,2029,2053,0494
1943,2097,2020,2076,0488
2126,2056,2023,2055,0481
2163,2062,2045,2061,0475
1924,2069,2092,2065,0469
2027,2050,2081,2065,0463
2234,2083,2080,2075,0457
1961,2049,2025,2049,0451
1953,2055,2011,2041,0445
2240,2061,2035,2065,0439
2018,2052,2031,2055,0433
1887,2021,2017,2025,0427
2150,2029,2015,2024,0420
2151,2065,2032,2052,0414
1892,2074,2036,2067,0408
2123,2077,2094,2090,0402
2207,2061,2131,2063,0396
1905,2073,2118,2067,0390
2066,2103,2111,2085,0384
2226,2063,2019,2051,0378
1992,2071,2033,2064,0372
1915,2048,2020,2042,0366
2223,2059,2024,2053,0361
2072,2057,2037,2065,0355
1890,2050,2021,2046,0350
2158,2056,2034,2050,0345
2143,2048,2032,2051,0340
1840,2022,2015,2029,0335
2067,2047,2034,2035,0330
2221,2074,2071,2082,0325
1946,2080,2043,2051,0321
2010,2065,2081,2086,0316
2231,2058,2036,2054,0312
1983,2051,2040,2069,0308
1914,2055,2035,2051,0304
2215,2064,2046,2046,0301
2049,2025,2015,2026,0297
1852,2027,1962,2027,0294
2116,2032,1938,2015,0291
2186,2075,1992,2072,0288
1863,2028,2078,2053,0285
2080,2082,2148,2070,0282
2225,2064,2142,2062,0280
1933,2056,2107,2045,0277
1947,2043,2080,2045,0275
2227,2047,2052,2039,0273
2016,2061,2020,2040,0271
1902,2054,2001,2042,0270
2219,2089,2053,2083,0268
2155,2098,2047,2057,0267
1889,2077,2083,2108,0265
2142,2069,2043,2067,0264
2163,2035,2000,2035,0263
1906,2067,2023,2054,0261
2033,2060,2029,2067,0260
2252,2083,2046,2078,0259
1959,2050,2037,2037,0257
1942,2055,2050,2063,0256
2208,2041,2022,2039,0254
2034,2036,2028,2049,0252
1863,2029,2019,2036,0250
2175,2049,2024,2015,0248
2133,2065,2067,2057,0246
1863,2039,2027,2020,0243
2082,2051,2017,2029,0240
2223,2082,2079,2099,0236
1909,2056,2015,2048,0233
2032,2064,2059,2087,0229
2230,2047,2015,2043,0225
1961,2039,2035,2037,0221
1888,2036,2021,2043,0217
2229,2071,2061,2047,0213
2064,2049,2069,2047,0209
1883,2062,2025,2025,0205
2147,2055,2040,2051,0201
2141,2039,2004,2015,0197
1872,2055,2048,2048,0193
2053,2057,2036,2044,0190
2245,2089,2078,2076,0186
1949,2076,2071,2095,0183
1975,2063,2037,2045,0180
2248,2076,2031,2059,0176
1995,2046,2036,2046,0173
1917,2051,2057,2080,0170
2203,2059,2001,2062,0166
2101,2051,2039,2059,0163
1875,2031,2024,2040,0159
2122,2045,2031,2035,0156
2166,2051,2035,2046,0152
1896,2058,2049,2054,0148
2038,2044,2051,2036,0145
2225,2066,2111,2077,0141
1922,2039,2005,2030,0138
1957,2050,2015,1996,0135
2237,2076,2113,2145,0132
2012,2045,2018,2018,0129
1886,2059,2026,2023,0126
2213,2080,2044,2093,0124
2117,2059,2067,2064,0121
1907,2076,2039,2076,0118
2108,2050,2040,2049,0115
2196,2059,2039,2023,0112
1896,2055,2028,2053,0109
2025,2050,2055,2066,0107
2236,2069,2065,2097,0104
1983,2079,2046,2047,0101
1946,2054,2044,2038,0098
2220,2059,2059,2035,0096
2058,2063,2049,2060,0093
1869,2038,2015,1986,0091
2165,2062,2071,2057,0088
2143,2062,1989,2011,0086
1902,2079,2069,2110,0084
2097,2065,2020,2077,0082
2223,2074,2011,2032,0080
1910,2046,2062,2019,0077
2018,2079,2052,2067,0075
2245,2078,2053,2082,0073
1970,2070,2045,2023,0071
1894,2022,2013,1980,0069
2212,2052,2025,2053,0066
2077,2059,2079,2106,0064
1869,2034,1973,2020,0062
2134,2047,2054,2048,0060
2143,2041,2029,2039,0058
1864,2036,2022,2033,0055
2051,2042,2027,2043,0053
2211,2053,2039,2051,0051
1914,2047,2030,2050,0049
1957,2040,2033,2061,0047
2244,2076,2041,2050,0046
2015,2060,2026,2044,0044
1914,2061,2036,2017,0043
2213,2069,2001,2050,0041
2113,2067,1978,2060,0040
1876,2060,1895,2028,0039
2122,2045,1944,2062,0039
2187,2051,2079,2090,0038
1889,2054,2122,2051,0038
2046,2072,2107,2052,0038
2231,2052,1995,2034,0038
1961,2059,2045,2101,0038
1955,2067,2258,2098,0039
2230,2069,2321,2097,0039
2043,2067,2200,2046,0040
1901,2060,1993,2017,0042
2192,2069,1888,2026,0043
2131,2057,1972,2062,0046
1883,2061,2088,2073,0048
2102,2063,2079,2053,0052
2193,2063,2059,2036,0056
1913,2059,2014,2047,0060
2008,2056,2067,2070,0066
2228,2063,1895,2042,0071
1988,2063,1847,2041,0077
1947,2057,1929,2059,0084
2218,2079,2122,2090,0091
2069,2063,2217,2082,0098
1890,2067,2057,2035,0106
2173,2074,1955,2037,0114
2170,2091,2131,2105,0122
1953,2128,2197,2155,0131
2125,2087,2150,2082,0140
2247,2096,2170,2123,0150
1903,2030,2160,2027,0160
1980,2054,2089,2066,0171
2223,2066,1834,2013,0181
2027,2071,1701,2006,0192
1941,2044,1935,2056,0203
2189,2044,2330,2073,0215
2067,2065,2363,2121,0227
1862,2041,2006,1991,0239
2145,2054,1719,1976,0251
2149,2040,1745,2012,0263
1869,2027,1928,2023,0276
2029,2038,2160,2145,0288
2209,2061,2179,2080,0301
1934,2053,2227,2003,0315
1944,2040,2126,1983,0328
2211,2041,1951,2012,0341
2009,2046,1871,2023,0355
1902,2063,1973,2105,0369
2217,2071,2069,2058,0383
2138,2069,1878,1965,0397
1907,2074,1832,1991,0411
2116,2059,2301,2152,0425
2163,2036,2426,2179,0439
1845,2045,2216,2066,0454
1978,2037,2072,2012,0468
2213,2047,2161,2098,0483
1976,2048,1898,2019,0497
1937,2052,1512,1946,0512
2211,2048,1575,1962,0526
2059,2042,2324,2102,0541
1884,2052,2622,2162,0555
2201,2089,2312,2055,0569
2143,2081,1931,2067,0584
1894,2076,1827,2061,0598
2082,2042,1946,2033,0612
2240,2072,1750,2013,0626
1896,2033,1404,1967,0640
1995,2049,2078,2044,0653
2209,2029,2586,2197,0667
1993,2064,2583,2002,0680
1920,2073,2343,2095,0693
2195,2060,1873,2030,0706
2070,2054,2027,2069,0719
1878,2050,2018,2029,0732
2160,2056,1821,2040,0745
2159,2090,1980,2089,0758
1887,2078,2047,2033,0771
2100,2071,2023,2037,0783
2223,2060,1430,1887,0796
1947,2067,2003,2027,0808
1991,2055,2538,2191,0821
2211,2048,2534,2091,0833
2060,2105,2284,2126,0846
2017,2169,2274,2301,0858
2286,2161,1903,2019,0871
2131,2061,1733,1917,0883
1861,2014,1912,2020,0896
2076,2035,2059,2146,0908
2156,2085,2047,2144,0920
1867,2000,1548,1851,0931
2035,1970,1732,1892,0943
2195,2031,2183,2029,0954
1898,2004,1977,1965,0965
1956,2009,2158,1962,0976
2176,2040,2799,2311,0987
1991,2023,2207,2100,0998
1847,2006,1855,1995,1009
2163,2017,1578,1873,1020
2103,2023,1696,1912,1030
1826,2001,2042,2028,1041
2091,2052,1960,2008,1052
2177,2037,2323,2136,1062
1908,2104,2589,2263,1072
2026,2037,1802,1948,1083
2302,2091,1855,1990,1093
1981,2115,2354,2245,1104
1965,2106,2127,2092,1114
2255,2128,2125,2101,1125
2084,2047,1255,1878,1135
1902,2037,1677,1935,1145
2214,2059,1993,2104,1155
2113,2037,2024,1961,1165
1868,2075,2678,2279,1175
2104,2051,2271,2105,1184
2207,2021,1605,1954,1193
1886,1993,1588,1875,1202
2004,2085,2354,2255,1211
2207,2029,2331,2098,1220
1980,2102,2649,2169,1228
1879,2075,2324,2077,1237
2261,2124,2254,2126,1246
2061,2054,1640,1903,1255
1859,2021,1636,1902,1264
2191,2071,2035,2087,1273
2104,1994,1867,1942,1281
1841,2008,1842,1996,1290
2100,2059,1989,2061,1298
2240,2110,2427,2253,1306
1936,2085,2106,2148,1313
1928,1951,1341,1808,1320
2253,2021,1785,1938,1326
1954,2034,2288,2026,1332
1891,2034,2176,1974,1338
2266,2121,2240,2266,1343
2083,2080,2144,2107,1348
1830,2065,2014,2078,1352
2135,2013,1888,1899,1356
2192,2087,2240,2115,1359
1860,2083,2234,2139,1362
2051,2066,2055,2060,1365
2256,2027,1854,1928,1368
1935,2049,2035,2015,1371
1964,2085,2174,2126,1373
2224,2029,1975,2011,1375
2037,2055,1795,2001,1377
1869,2044,1868,2032,1378
2184,2034,2103,2033,1379
2149,2069,2186,2118,1380
1880,2073,2092,2086,1380
2099,2055,1926,2051,1380
2201,2026,1662,1893,1380
1875,2029,1995,2051,1380
2036,2124,2538,2261,1380
2257,2117,2397,2192,1379
1998,2095,2245,2136,1378
1941,2039,1743,1915,1377
2201,2035,1813,1976,1375
2005,2079,2110,2080,1374
1926,2067,2097,2071,1372
2212,2078,2143,2085,1369
2190,2077,2078,2070,1367
1913,2062,2029,2044,1364
2070,2053,1992,2028,1361
2194,2060,1976,2031,1358
1920,2020,1870,1958,1355
1995,2064,2019,2056,1351
2225,2055,1835,1999,1347
1996,2103,2123,2185,1343
1894,2059,2234,2103,1339
2265,2095,2348,2129,1334
2077,2076,2264,2091,1329
1856,2061,1983,2025,1324
2145,2048,1949,2018,1319
2171,2067,2029,2059,1314
1880,2070,2056,2048,1309
2044,2059,2061,2071,1304
2237,2066,2001,2050,1299
1895,2013,1737,1889,1293
1924,2023,1917,2011,1287
2226,2067,2207,2140,1282
2013,2078,2205,2140,1275
1936,2077,2094,2107,1269
2233,2050,1824,1980,1263
2137,2051,1963,2021,1256
1844,2050,2115,2105,1249
2113,2072,2130,2026,1242
2208,2096,2202,2107,1235
1882,2069,2170,2058,1228
2036,2054,2029,2046,1220
2247,2051,1797,1982,1213
1929,2050,1903,2005,1206
1943,2062,2177,2125,1198
2271,2061,2163,2080,1190
2035,2067,2196,2097,1182
1863,2037,1941,1973,1174
2148,2022,1829,1947,1166
2161,2098,2158,2160,1158
1924,2080,2092,2117,1149
2161,2097,2143,2143,1140
2257,2053,1988,2069,1132
1890,2061,1998,2069,1123
2017,2096,2120,2075,1114
2301,2113,2117,2107,1105
2037,2106,2099,2074,1096
1961,2116,2157,2121,1088
2205,2065,2100,2062,1079
2068,2049,1959,2015,1070
1846,2024,1909,1991,1062
2138,2039,2003,2023,1053
2156,2061,2004,2070,1044
1863,2040,1967,2038,1034
2033,1996,1809,1961,1025
2157,1967,1865,1909,1015
1853,1993,2048,1995,1005
1928,2016,2222,2088,0994
2191,2035,2306,2145,0984
2013,2068,2216,2126,0973
1951,2082,2101,2067,0963
2232,2065,1958,2029,0953
2088,2055,1937,2011,0943
1857,2031,1979,2006,0934
2157,2070,2027,2037,0925
2195,2087,2017,2062,0916
1950,2092,1979,2059,0907
2058,2069,1985,2041,0898
2226,2067,2004,2050,0888
1945,2066,2035,2044,0879
1947,2049,1965,2050,0869
2233,2074,1914,2047,0858
2065,2089,1975,2080,0848
1891,2045,2142,2079,0837
2185,2067,2327,2105,0826
2080,2014,2226,2057,0815
1835,2023,2062,2048,0805
2054,2017,1987,2016,0794
2161,2021,2046,2018,0784
1854,2009,2037,1999,0774
1974,2038,1980,2005,0765
2285,2072,1975,2034,0755
1999,2067,1999,2043,0746
1978,2070,1986,2041,0737
2224,2063,1969,2044,0728
2059,2065,1993,2045,0720
1849,2021,1904,2021,0710
2155,2031,1830,2002,0701
2127,2040,1984,2062,0692
1855,2040,2156,2059,0683
2064,2031,2325,2064,0673
2223,2083,2239,2094,0664
1952,2093,2129,2096,0654
1993,2066,2039,2073,0645
2243,2059,2021,2061,0636
1973,2033,1991,2011,0628
1908,2046,2081,2063,0619
2211,2060,2087,2066,0611
2119,2095,2073,2085,0603
1858,2056,1987,2034,0595
2152,2060,1995,2042,0588
2151,2045,1990,2030,0580
1908,2091,2032,2062,0573
2057,2051,2017,2050,0566
2287,2102,2061,2088,0559
1929,2047,2011,2044,0552
1917,2028,2003,2015,0545
2226,2056,2031,2048,0538
1963,2015,2031,2011,0530
1918,2057,2056,2058,0523
2197,2068,2023,2047,0516
2154,2090,2090,2095,0508
1896,2083,2088,2075,0500
2195,2117,2147,2113,0493
2209,2100,2108,2080,0485
1931,2088,2050,2079,0477
2047,2058,2016,2066,0469
2220,2061,2066,2084,0461
1963,2066,2091,2072,0453
1948,2048,2065,2047,0445
2209,2047,2038,2043,0438
2032,2051,2019,2045,0430
1890,2053,2025,2043,0422
2160,2046,2020,2043,0415
2118,2044,2013,2045,0408
1838,2022,2002,2020,0401
2094,2053,2035,2047,0394
2216,2083,2055,2067,0387
1902,2039,2022,2033,0380
2010,2061,2039,2054,0374
2218,2062,2043,2056,0368
1987,2057,2044,2061,0362
1937,2051,2045,2053,0356
2195,2044,2037,2044,0351
2063,2053,2043,2035,0345
1893,2059,2041,2047,0340
2106,2025,2011,2014,0335
2154,2056,2047,2037,0330
1878,2037,2033,2026,0325
2065,2051,2039,2045,0320
2226,2068,2039,2026,0316
1943,2061,2081,2078,0312
2001,2084,2039,2073,0308
2241,2081,2051,2094,0304
2030,2081,2044,2101,0300
1918,2056,2024,2049,0296
2197,2070,2077,2095,0292
2103,2064,2043,2062,0289
1884,2059,2039,2045,0286
2133,2057,2047,2036,0283
2206,2094,2091,2077,0280
1911,2063,2075,2059,0277
2061,2073,2091,2089,0275
2228,2069,2047,2048,0272
1945,2059,2069,2073,0270
1979,2073,2025,2037,0267
2233,2065,2042,2060,0265
2030,2063,2066,2111,0262
1877,2033,2021,2008,0260
2184,2053,2075,2077,0256
2139,2071,2045,2088,0253
1828,2023,2001,2046,0249
2144,2077,2049,2077,0245
2207,2053,2038,2047,0241
1882,2041,2033,2040,0236
1983,2022,2015,2038,0232
2208,2037,2032,2034,0227
1959,2056,2052,2051,0223
1949,2070,2061,2063,0219
2249,2072,2046,2042,0215
2067,2075,2066,2069,0211
1898,2100,2094,2092,0208
2211,2082,2093,2083,0205
2189,2098,2111,2111,0202
1920,2095,2053,2068,0200
2100,2068,2049,2075,0198
2206,2057,2019,2035,0196
1883,2018,2014,1993,0194
1959,2023,2032,1987,0191
2196,2024,1982,2019,0189
1954,2033,2023,2058,0187
1917,2051,2031,2087,0185
2180,2035,2015,2028,0183
2082,2049,2041,2051,0181
1928,2093,2073,2086,0179
2155,2088,2056,2065,0177
2175,2063,2061,2065,0175
1914,2071,2067,2075,0173
2036,2038,2021,2018,0171
2221,2079,2049,2047,0169
1937,2055,2052,2053,0167
1982,2058,2053,2087,0166
2223,2066,2028,2058,0164
2022,2071,2034,2070,0163
1905,2038,2022,2031,0162
2173,2042,2038,2041,0161
2093,2055,2040,2047,0161
1834,2021,2006,1999,0160
2128,2051,2052,2032,0159
2181,2066,2075,2098,0158
1914,2067,2044,2054,0158
2043,2060,2040,2044,0157
2236,2065,2055,2055,0157
1977,2066,2079,2080,0157
1955,2052,2038,2049,0157
2218,2065,2033,2062,0157
2049,2072,2049,2054,0157
1902,2058,2038,2060,0157
2163,2049,2033,2053,0157
2115,2047,2034,2064,0157
1901,2055,2039,2048,0157
2097,2049,2037,2047,0157
2203,2067,2057,2054,0157
1912,2055,2040,2056,0157
2015,2050,1990,2039,0157
2225,2065,1939,2037,0157
1996,2070,1899,2047,0157
1930,2045,1998,2079,0157
2207,2058,2188,2096,0157
2056,2062,2183,2050,0157
1881,2047,2068,2008,0158
2159,2060,1903,2038,0158
2160,2066,1944,2059,0158
1876,2051,2043,2055,0158
2087,2078,2231,2064,0159
2215,2075,2250,2092,0159
1918,2056,2299,2098,0160
1983,2048,2123,2055,0160
2237,2064,1975,2015,0161
1999,2061,1859,2006,0163
1916,2056,1854,2035,0164
2213,2059,2016,2082,0166
2097,2066,1981,2066,0169
1875,2061,1971,2058,0172
2147,2061,2042,2031,0175
2167,2061,2162,2118,0179
1874,2043,2162,2064,0183
2043,2050,2154,2076,0188
2229,2064,2141,2074,0193
1945,2059,2080,2035,0198
1983,2067,1912,2017,0204
2253,2081,1855,2019,0210
2023,2067,1952,2036,0216
1920,2078,2192,2116,0222
2198,2062,2127,2083,0229
2125,2066,1931,2027,0236
1874,2054,1915,2030,0243
2118,2053,2044,2057,0250
2181,2059,2165,2091,0257
1898,2066,2087,2100,0265
2037,2080,1900,2019,0272
2229,2055,1841,1994,0280
1954,2067,2124,2073,0289
1939,2051,2283,2101,0297
2216,2065,2141,2047,0306
2047,2068,1957,2056,0316
1884,2063,1887,2053,0325
2149,2048,2197,2109,0335
2128,2040,2258,2079,0345
1864,2053,2145,2043,0356
2072,2045,1892,1996,0367
2219,2051,1949,2015,0378
1906,2039,2104,2056,0390
2021,2046,2104,2061,0401
2233,2054,1937,2015,0413
2007,2066,1755,1977,0425
1927,2057,1919,2031,0438
2215,2064,2100,2051,0450
2072,2076,2384,2149,0462
1890,2076,2263,2102,0475
2150,2075,2093,2047,0487
2162,2073,1861,2023,0500
1906,2053,1805,2006,0512
2058,2049,1918,2083,0525
2226,2073,2064,2096,0538
1984,2094,2104,2096,0551
2000,2073,2074,2055,0563
2218,2053,2001,1955,0576
2006,2029,2023,1990,0588
1898,2054,2259,2130,0601
2177,2062,2192,2112,0613
2076,2069,1971,2082,0626
1873,2046,1939,2040,0638
2139,2053,1949,2081,0650
2191,2072,2063,2049,0663
1941,2067,2127,2050,0675
2039,2030,1953,1919,0686
2197,2048,2119,2031,0698
1985,2084,2273,2143,0710
1975,2087,1821,2090,0721
2229,2092,1758,2026,0732
2023,2031,2035,2099,0743
1865,2034,2291,2051,0754
2205,2087,2483,2156,0765
2165,2136,2118,2079,0776
1935,2125,1981,2087,0787
2119,2074,1840,2067,0797
2158,2038,1960,2055,0808
1844,1987,2037,2023,0818
2040,2031,2050,1984,0828
2214,2040,2205,2077,0839
1981,2084,2113,2054,0849
1912,2014,1975,2008,0859
2173,2019,1739,1961,0869
2045,2045,1568,2002,0878
1902,2045,1972,2024,0888
2152,2063,2487,2152,0898
2120,2036,2469,2081,0908
1828,2025,1824,1974,0917
2076,2025,1606,1903,0927
2233,2072,1998,2101,0936
1963,2078,2410,2131,0946
1999,2096,2090,2056,0955
2229,2049,2005,2016,0965
2039,2105,2242,2104,0974
1953,2118,2304,2141,0983
2225,2097,1884,2072,0993
2073,2029,1436,1873,1002
1833,1985,1801,1939,1011
2090,2053,2644,2275,1020
2176,2064,2275,2123,1030
1869,2019,1594,1888,1039
2021,1999,1753,1874,1048
2199,2058,2381,2153,1057
1934,2050,1791,2012,1066
2061,2109,2075,2168,1075
2275,2143,2511,2200,1084
2098,2120,2323,2127,1094
1900,2060,2024,2021,1103
2226,2058,1711,1984,1112
2172,2120,2147,2153,1122
1887,2127,2393,2216,1131
2128,2067,1687,1928,1140
2163,1971,1532,1807,1150
1839,1989,2162,2044,1159
1968,1999,2155,2018,1168
2214,2001,1434,1934,1176
1965,2059,1794,2011,1185
1979,2145,2445,2224,1194
2259,2075,2031,2064,1202
2003,1978,1939,1952,1210
1848,1989,2190,2075,1219
2219,2176,3026,2402,1227
2210,2184,2773,2239,1235
1873,2079,1678,1857,1244
2079,1976,1251,1740,1252
2201,2021,1785,1989,1261
1904,2037,1951,2117,1269
2014,2062,2076,2146,1278
2223,2017,1923,1851,1286
1941,2023,2183,1942,1294
1911,2092,2377,2082,1302
2220,2067,2211,2133,1310
2033,2008,1643,1925,1317
1863,2019,1827,2041,1324
2095,1984,1594,1995,1331
2145,2098,1837,2072,1337
1838,1996,2019,2026,1343
2133,2138,2654,2257,1349
2249,2070,2075,2010,1355
1949,2092,2275,2184,1360
2015,2111,2095,1951,1365
2156,2015,2392,2204,1370
2033,2088,2265,2065,1375
1900,2017,1721,1935,1380
2228,2113,2275,2120,1384
2101,2096,2221,2082,1389
1860,2062,2117,2079,1393
2132,1996,1546,1941,1397
2176,2016,1559,1878,1401
1842,1980,1778,1885,1404
1974,1928,1727,1903,1407
2261,2110,2393,2160,1410
1934,2067,2117,2080,1412
2008,2121,2286,2201,1414
2239,2019,1688,1989,1415
2041,2071,2072,2072,1415
1857,2014,2136,2007,1416
2206,2067,2037,1975,1416
2178,2123,2311,2179,1416
1885,2107,2048,2036,1415
2125,2106,2085,2145,1415
2222,2067,2039,2034,1414
1868,2019,1934,1965,1414
2004,2057,2166,2089,1413
2247,2051,2041,2009,1412
1959,2016,1737,1963,1410
1914,2054,1970,2043,1409
2234,2061,2159,2091,1407
2065,2079,2197,2117,1406
1880,2061,2053,2049,1404
2183,2042,1936,1963,1402
2138,2039,1851,2006,1400
1866,2083,2221,2140,1398
2101,2061,2068,2093,1396
2240,2105,2254,2176,1394
1906,2069,2017,2053,1392
1986,2073,2048,2073,1389
2267,2086,2075,2071,1386
1992,2072,2144,2095,1383
1902,2063,1975,2040,1380
2272,2089,2002,2051,1377
2090,2070,1917,2041,1374
1870,2064,2101,2066,1371
2168,2063,1965,2059,1367
2169,2063,2076,2090,1363
1850,2044,2054,2017,1359
2036,2031,2155,2056,1355
2195,2041,2024,1954,1351
1886,2048,1957,2031,1346
1985,2073,2015,2124,1341
2261,2059,2129,2096,1336
2021,2079,2147,2089,1330
1892,2049,1879,1989,1325
2187,2050,2010,2041,1319
2055,2049,2155,2119,1314
1897,2080,2087,2104,1308
2157,2088,2171,2101,1302
2201,2079,1974,2051,1296
1855,2028,2005,1985,1291
2011,2033,2019,1993,1285
2225,2052,2045,2000,1279
1941,2055,2023,2025,1274
1946,2032,1853,2001,1268
2219,2043,2012,2029,1262
2037,2094,2209,2166,1255
1911,2080,2076,2066,1249
2205,2084,2088,2116,1243
2148,2044,1871,1971,1236
1861,2047,2053,2007,1229
2108,2056,2143,2063,1222
