34 1 7 9 0
80 6 8 10 0
80 8 8 10 0
96 13 9 10 0
111 13 9 13 0
112 13 10 15 0
130 15 11 17 0
132 15 11 19 0
140 14 11 27 0
155 14 13 35 0
150 14 15 34 0
146 14 16 38 0
152 16 18 39 0
146 14 18 41 0
149 14 19 41 0
148 13 18 41 0
138 13 20 42 0
145 13 21 42 0
137 16 21 39 0
133 17 20 34 0
135 16 19 34 0
131 17 19 38 0
133 14 16 36 0
128 14 16 33 0
128 16 17 32 0
132 16 18 32 0
133 18 16 32 0
133 19 15 32 0
133 21 15 30 0
135 19 20 30 0
138 18 21 31 0
130 17 20 18 0
133 16 23 19 0
134 18 23 23 0
131 18 24 22 0
137 18 24 22 0
133 19 25 21 0
135 17 31 20 0
136 14 32 21 0
130 16 30 27 0
134 16 30 27 0
132 18 29 27 0
129 18 27 27 0
133 18 29 27 0
127 18 29 28 0
129 18 28 30 0
126 14 27 29 0
125 14 22 29 0
131 11 20 32 0
125 11 20 29 0
126 12 19 33 0
126 14 21 53 0
126 15 23 53 0
131 13 21 53 0
127 13 22 52 0
130 15 22 51 0
132 15 23 51 0
129 16 27 51 0
132 14 26 53 0
130 14 28 53 0
128 14 30 48 0
133 11 30 35 0
129 15 29 34 0
132 15 29 33 0
132 14 28 33 0
128 13 27 34 0
132 12 23 35 0
126 10 22 36 0
128 10 15 23 0
129 10 19 27 0
130 10 20 26 0
136 10 17 24 0
132 7 18 27 0
133 8 16 29 0
135 9 16 29 0
131 8 18 33 0
137 8 19 33 0
135 9 16 33 0
133 10 17 30 0
136 13 18 42 0
131 14 27 59 0
131 13 28 59 0
131 12 27 60 0
129 13 27 59 0
134 14 27 62 0
130 18 26 60 0
131 18 25 59 0
133 17 26 58 0
131 16 25 66 0
146 22 28 63 0
143 22 19 45 0
144 23 18 50 0
145 23 39 49 0
138 22 39 49 0
146 22 41 51 0
144 20 41 51 0
142 21 41 51 0
147 21 41 51 0
145 23 41 41 0
143 13 35 35 0
143 13 37 34 0
138 13 35 22 0
143 16 19 26 0
139 16 17 26 0
134 20 15 24 0
136 19 16 44 0
134 18 16 44 0
137 18 16 46 0
133 18 17 48 0
138 24 32 50 0
142 25 35 53 0
138 25 36 53 0
143 22 36 48 0
143 22 36 48 0
144 21 35 48 0
151 21 38 36 0
146 21 39 36 0
151 21 39 32 0
151 20 39 31 0
138 13 28 28 0
144 14 23 22 0
142 14 21 24 0
144 14 22 24 0
147 14 22 25 0
140 14 35 55 0
141 13 33 55 0
139 13 31 56 0
135 13 31 56 0
137 10 33 61 0
133 11 33 61 0
136 13 35 62 0
136 15 35 61 0
129 15 35 60 0
137 15 35 62 0
134 15 20 38 0
136 17 19 38 0
138 17 18 38 0
135 17 18 41 0
141 17 15 34 0
138 18 15 34 0
133 16 11 30 0
136 15 16 29 0
134 15 21 32 0
133 15 22 32 0
131 14 21 33 0
128 13 22 32 0
132 13 25 33 0
128 17 35 36 0
131 16 35 36 0
132 15 34 35 0
132 14 34 36 0
139 14 33 36 0
135 13 29 32 0
135 15 29 30 0
138 15 29 30 0
134 15 28 30 0
136 16 24 31 0
131 12 12 27 0
133 15 16 41 0
136 15 16 41 0
130 14 14 42 0
128 15 15 44 0
128 15 18 44 0
128 15 17 45 0
132 15 17 50 0
128 14 18 49 0
135 13 26 50 0
136 15 27 50 0
126 10 27 41 0
131 10 27 40 0
127 11 27 36 0
130 10 26 35 0
132 9 23 36 0
127 9 24 33 0
132 9 26 29 0
129 10 25 29 0
125 10 15 21 0
130 9 15 17 0
127 8 16 26 0
132 8 15 27 0
132 8 16 35 0
131 13 22 36 0
137 13 24 34 0
130 12 26 38 0
132 13 27 37 0
133 13 26 38 0
130 13 26 37 0
136 16 26 37 0
134 15 26 33 0
129 16 26 32 0
131 18 28 25 0
122 17 23 25 0
127 17 22 25 0
127 17 15 12 0
126 17 17 11 0
132 19 17 11 0
126 20 21 11 0
130 22 21 9 0
129 23 21 24 0
131 23 21 24 0
137 22 19 24 0
135 21 19 23 0
137 22 19 24 0
138 22 18 25 0
134 22 17 25 0
137 20 17 24 0
135 21 11 28 0
131 15 12 29 0
135 11 19 31 0
126 15 17 32 0
131 15 17 32 0
131 14 17 33 0
128 13 17 32 0
135 12 17 32 0
131 12 17 31 0
134 12 16 31 0
135 8 16 26 0
130 13 18 43 0
132 12 15 37 0
129 14 18 42 0
134 17 23 46 0
137 17 25 45 0
133 19 27 47 0
134 19 27 48 0
131 20 28 51 0
129 20 27 51 0
131 20 27 54 0
129 17 27 40 0
137 18 26 40 0
136 16 23 40 0
130 16 14 34 0
135 16 13 34 0
130 15 13 36 0
135 15 22 35 0
136 14 21 31 0
133 14 23 31 0
141 15 22 26 0
137 16 23 22 0
134 16 25 22 0
138 14 25 20 0
131 10 25 25 0
132 11 26 26 0
129 9 23 26 0
128 9 19 26 0
132 9 18 26 0
129 10 18 27 0
132 12 17 27 0
133 11 21 29 0
131 11 20 28 0
134 11 19 30 0
130 11 21 31 0
133 11 20 32 0
137 10 20 26 0
131 10 24 30 0
136 11 24 31 0
131 11 23 30 0
131 10 26 30 0
135 9 21 28 0
131 11 22 30 0
136 11 24 27 0
135 10 23 26 0
132 10 25 31 0
136 10 26 31 0
132 11 22 31 0
135 11 26 31 0
135 7 27 31 0
131 9 31 42 0
135 9 31 43 0
131 9 30 43 0
132 9 30 47 0
134 9 29 51 0
129 9 27 47 0
134 8 27 47 0
131 8 27 48 0
124 9 28 56 0
128 10 35 71 0
122 10 30 67 0
128 13 32 69 0
127 12 32 68 0
128 13 43 65 0
134 15 43 65 0
130 16 44 64 0
130 15 47 65 0
132 14 47 64 0
137 17 43 55 0
141 17 37 34 0
137 16 37 33 0
138 14 35 26 0
141 14 36 26 0
133 14 20 24 0
139 9 20 12 0
138 9 20 13 0
137 9 13 10 0
140 10 14 9 0
133 7 15 11 0
140 10 19 21 0
140 10 19 22 0
137 10 19 22 0
142 10 17 22 0
138 10 15 21 0
142 10 14 22 0
145 10 15 23 0
140 9 15 22 0
144 8 15 21 0
142 9 14 24 0
137 7 10 19 0
140 8 10 18 0
134 9 10 22 0
139 13 15 39 0
138 13 17 39 0
134 13 23 46 0
137 13 24 50 0
133 13 24 54 0
137 14 27 65 0
137 14 27 65 0
132 15 29 66 0
146 23 32 67 0
142 22 33 65 0
141 19 29 56 0
144 20 28 56 0
139 20 27 50 0
140 20 26 51 0
138 22 26 47 0
137 20 21 25 0
142 20 22 25 0
137 20 21 25 0
131 13 24 29 0
130 13 27 33 0
128 13 28 36 0
131 12 29 37 0
126 12 29 37 0
130 9 27 32 0
130 12 28 32 0
130 14 28 32 0
134 14 28 33 0
133 14 29 32 0
134 14 26 27 0
135 13 22 50 0
132 15 30 65 0
137 15 27 64 0
135 16 27 66 0
139 17 26 68 0
145 14 25 68 0
140 16 26 69 0
149 19 26 70 0
147 19 27 71 0
144 21 29 76 0
150 21 29 57 0
145 20 20 45 0
146 19 20 44 0
147 19 20 42 0
141 18 20 38 0
147 20 20 38 0
141 17 22 38 0
134 13 22 38 0
137 14 20 35 0
130 15 17 23 0
133 14 18 38 0
132 15 17 41 0
129 15 18 41 0
132 17 19 43 0
125 17 21 44 0
124 14 21 43 0
124 14 17 42 0
122 14 17 39 0
132 17 18 41 0
130 13 18 40 0
132 14 14 29 0
134 13 12 21 0
128 17 12 21 0
133 16 11 17 0
132 16 10 16 0
132 16 10 16 0
137 16 9 16 0
131 16 9 16 0
130 13 8 12 0
130 13 9 10 0
127 13 7 8 0
130 14 7 9 0
128 11 7 9 0
131 10 7 9 0
131 12 9 10 0
125 11 8 8 0
128 11 7 9 0
126 9 7 8 0
133 13 8 8 0
140 18 11 12 0
136 18 12 12 0
141 18 12 12 0
139 19 12 15 0
139 19 13 15 0
145 18 12 15 0
140 18 12 15 0
145 18 12 15 0
145 19 12 16 0
136 17 12 17 0
136 8 6 12 1
132 9 7 12 1
136 8 6 12 1
137 8 6 9 1
135 11 6 10 1
137 11 6 8 1
134 11 6 8 1
135 11 6 8 1
136 10 5 7 1
134 12 10 7 1
139 13 10 7 2
137 14 10 8 2
133 14 10 7 2
137 14 10 7 2
127 13 13 9 2
128 15 13 9 3
128 15 13 9 3
124 15 12 8 3
127 16 13 8 3
122 15 12 9 3
123 16 12 9 4
126 16 13 9 4
123 16 12 9 4
130 16 13 9 4
129 14 13 8 5
137 17 16 8 5
148 24 27 20 5
143 24 29 20 5
148 24 29 20 6
146 23 31 21 6
142 23 32 21 6
145 22 35 21 6
140 22 44 21 7
140 23 47 21 7
141 22 46 21 7
132 19 40 20 7
128 11 39 12 8
124 10 39 12 8
126 9 57 15 8
129 10 78 19 8
123 12 98 22 9
126 12 97 19 9
124 12 93 20 9
124 11 96 21 9
129 12 103 20 10
124 11 115 23 10
126 10 128 29 10
126 14 134 32 11
117 20 127 30 11
125 24 111 25 11
126 22 83 17 12
131 24 73 19 12
132 24 75 19 12
127 24 76 22 13
127 22 90 29 13
123 25 123 41 13
118 35 127 48 14
123 37 121 45 14
128 34 116 42 15
129 29 117 42 15
124 25 127 47 15
124 27 137 47 16
126 26 140 46 16
122 26 145 46 17
127 24 149 46 17
127 24 127 39 17
136 16 121 25 18
136 13 118 22 18
126 12 115 22 19
128 13 115 24 19
130 13 113 19 20
122 14 113 19 20
124 15 113 19 20
122 15 114 20 21
126 17 112 19 21
129 17 110 18 22
120 16 91 16 22
128 13 78 22 23
128 12 103 28 23
125 9 107 24 24
130 9 108 25 24
127 9 99 26 25
135 8 79 25 25
136 9 70 24 26
131 5 122 37 26
138 11 132 39 27
135 12 132 40 27
132 12 131 39 28
135 12 117 33 28
130 12 111 32 29
134 12 121 36 29
131 10 143 39 29
128 11 141 39 30
132 12 146 42 30
126 12 125 35 31
125 8 117 33 31
124 7 117 32 32
127 5 119 31 32
130 5 121 30 33
126 6 121 30 33
125 7 112 28 33
127 7 83 24 34
124 8 81 26 34
130 9 70 21 35
126 9 67 24 35
126 9 72 24 36
129 9 69 23 36
125 9 68 23 37
129 8 71 23 37
127 8 86 24 37
127 7 99 22 38
132 7 94 21 38
131 22 109 30 39
126 29 108 33 39
125 29 102 33 40
127 28 97 35 40
136 35 95 43 41
135 39 94 49 41
135 39 93 49 42
137 41 84 49 42
136 41 66 52 42
142 42 66 55 43
136 39 45 50 43
141 32 46 46 44
143 31 52 45 44
134 30 55 44 45
134 26 71 41 45
130 21 81 34 46
134 20 81 32 46
138 16 90 31 47
132 17 88 29 47
130 14 89 23 47
129 9 90 19 48
128 8 88 18 48
136 10 86 24 49
135 11 79 24 49
138 10 73 21 50
141 12 60 20 50
139 15 60 22 51
138 20 50 24 51
134 21 42 23 52
137 18 50 17 52
141 18 45 20 52
135 18 64 21 53
139 18 66 22 53
139 18 105 26 54
140 23 119 26 54
140 28 120 35 55
130 28 134 38 55
140 25 133 36 56
140 22 143 39 56
129 23 146 39 56
137 25 158 47 57
135 25 153 49 57
133 21 172 57 58
134 19 153 56 58
124 21 132 54 59
134 23 140 54 59
133 23 137 56 60
133 23 146 62 60
135 23 144 62 61
132 20 145 65 61
132 16 129 59 62
131 14 128 57 62
131 16 109 50 62
135 16 109 47 63
130 16 125 46 63
129 14 129 43 64
130 14 128 42 64
123 14 123 32 65
129 14 144 30 65
129 14 145 29 66
127 13 145 27 66
130 12 149 26 67
123 11 146 25 67
129 10 151 25 67
128 11 164 28 68
128 11 155 28 68
131 11 192 37 69
125 9 203 37 69
133 13 196 39 70
133 13 195 48 70
128 13 202 51 71
133 13 195 52 71
130 13 209 62 71
131 16 220 68 72
132 14 191 66 72
126 15 196 70 73
133 15 175 66 73
131 15 168 65 74
130 12 166 65 74
133 11 177 59 75
130 13 165 53 75
133 12 188 54 76
131 11 170 46 77
124 11 164 39 77
131 13 170 39 78
129 15 200 58 78
131 15 204 58 79
132 16 255 78 79
129 17 277 83 80
134 16 282 93 80
130 15 316 97 81
137 17 307 98 81
140 17 310 98 82
142 18 306 97 82
143 17 332 107 83
142 16 314 99 83
144 18 341 108 84
148 18 301 94 85
140 18 269 86 85
148 18 265 80 86
148 19 245 81 86
142 15 263 81 87
150 10 259 81 87
145 10 263 83 88
152 8 205 59 88
155 14 248 78 89
149 14 232 75 89
152 17 305 102 90
148 17 323 105 90
143 17 337 108 91
146 19 373 117 91
138 20 362 117 92
137 20 364 117 92
136 19 361 115 93
135 20 360 115 93
137 15 315 97 94
131 18 315 97 94
141 17 293 81 95
142 18 255 72 95
145 17 273 105 95
151 10 209 88 96
150 11 209 88 96
149 13 223 104 97
150 19 218 103 97
137 24 223 102 98
141 24 215 102 98
141 26 322 123 98
134 26 302 122 99
137 26 350 130 99
127 27 353 111 100
129 28 350 109 100
128 27 366 111 100
124 29 359 99 101
131 26 360 100 101
133 22 358 100 102
137 22 360 103 102
136 12 248 70 102
131 16 249 74 103
137 17 199 55 103
132 17 183 61 104
137 16 186 61 104
137 27 194 95 104
138 26 222 99 105
134 29 237 95 105
133 66 403 183 105
140 69 410 183 106
146 70 480 209 106
142 71 482 210 106
145 71 531 215 107
145 75 543 219 107
138 78 604 245 107
141 76 619 237 108
135 76 612 235 108
143 76 608 239 108
142 55 533 187 109
128 51 537 188 109
131 51 580 192 110
126 60 622 205 110
127 61 615 228 110
135 56 612 223 111
128 54 573 201 111
129 48 556 200 111
127 48 565 200 112
123 47 576 197 112
127 48 572 197 112
128 54 566 197 113
133 61 549 206 113
133 58 505 183 113
130 57 495 169 114
132 55 480 168 114
127 56 478 173 115
135 59 464 169 115
140 61 457 168 115
142 63 441 175 116
145 67 479 187 116
139 51 408 172 117
147 50 429 154 117
154 51 388 144 117
148 52 437 155 118
155 51 429 153 118
157 50 435 153 118
160 56 492 174 119
163 56 492 174 119
156 54 497 161 119
155 62 531 164 120
156 62 532 161 120
141 62 501 155 120
141 56 472 176 120
136 56 448 168 121
131 57 452 171 121
133 59 475 177 121
126 60 422 158 122
125 59 432 164 122
124 62 417 163 122
135 49 304 144 122
142 48 302 144 123
139 49 294 141 123
154 47 252 99 123
156 46 243 101 123
154 47 241 98 123
161 46 179 76 123
152 37 142 72 123
157 38 80 55 123
156 40 121 68 123
153 42 114 67 123
156 42 116 68 123
153 40 123 67 123
144 40 125 70 123
149 39 129 70 123
149 39 147 73 123
149 36 144 69 123
148 34 145 68 123
151 32 145 67 123
157 24 126 55 122
147 18 126 52 122
150 15 124 48 122
151 16 102 39 122
149 15 102 33 121
152 15 100 34 121
145 11 73 24 121
152 12 64 24 120
154 11 68 24 120
147 14 116 36 120
151 16 121 43 119
148 18 123 42 119
147 18 127 45 118
150 16 133 45 118
144 16 133 45 117
143 16 134 46 117
142 18 128 46 116
135 17 126 44 116
139 16 133 46 115
134 15 108 42 115
138 14 92 34 114
139 10 92 32 113
131 11 92 33 113
136 7 56 22 112
132 4 31 17 111
132 5 66 30 111
133 4 73 30 110
126 6 86 33 109
130 7 103 43 108
126 9 101 43 107
123 10 95 43 107
126 12 106 51 106
121 11 101 49 105
127 11 97 48 104
126 11 91 48 104
128 11 95 46 103
135 11 100 48 102
131 11 96 48 101
142 14 81 42 100
142 19 78 44 99
132 21 71 44 99
153 27 67 36 98
153 26 84 36 97
150 25 108 48 96
151 21 176 63 95
149 21 190 58 94
156 20 182 52 93
155 35 219 79 92
142 48 236 95 91
160 53 236 94 90
168 56 236 95 89
148 49 235 96 89
144 46 230 100 88
150 40 230 90 87
152 31 175 60 86
141 23 117 46 85
144 16 98 43 84
148 21 87 44 83
151 23 71 33 83
145 23 73 34 82
137 22 73 34 81
145 25 74 39 80
144 29 79 43 79
139 31 62 39 78
159 34 54 37 77
160 35 49 37 76
151 34 64 38 75
156 34 86 46 74
152 37 91 51 73
157 37 99 54 71
157 37 112 63 70
151 36 115 64 69
160 32 113 59 68
149 28 117 58 67
133 20 112 56 66
133 18 112 55 65
128 18 117 56 64
141 23 117 50 63
140 19 111 40 62
130 31 120 40 62
134 30 109 31 61
134 31 123 34 60
127 30 139 39 59
124 27 131 36 59
127 26 126 36 58
137 27 134 37 57
133 29 134 38 57
125 30 119 35 56
127 33 117 35 55
136 28 117 41 54
138 28 119 40 54
132 27 99 33 53
144 20 55 21 52
147 19 40 21 51
138 10 52 20 51
145 12 85 21 50
145 12 103 22 49
141 11 103 22 49
142 13 105 22 48
134 11 97 20 47
143 14 94 28 46
142 15 94 29 46
129 19 87 27 45
137 20 82 23 44
138 27 82 25 44
136 24 62 25 43
138 23 41 25 43
140 20 41 20 42
143 20 37 18 41
139 20 38 18 41
135 21 38 14 40
139 21 38 16 40
137 20 37 14 39
138 21 37 14 38
134 17 37 10 38
133 16 36 11 37
142 19 26 12 37
136 19 26 12 36
141 17 33 12 36
141 18 31 12 35
136 17 29 13 35
143 18 30 13 34
141 16 33 16 34
142 16 33 15 33
143 16 34 16 33
134 15 36 15 33
128 11 39 17 32
125 12 39 17 32
119 17 32 18 31
122 17 23 18 31
119 17 23 17 31
114 15 23 17 30
112 14 22 15 30
108 14 23 16 30
116 15 22 16 29
117 22 24 22 29
127 20 20 20 28
128 20 21 20 28
128 17 21 22 28
134 17 21 23 28
131 18 22 25 27
139 17 21 25 27
141 18 21 25 27
143 22 22 28 26
144 22 22 29 26
138 17 20 27 26
138 17 21 27 25
142 18 21 27 25
138 20 23 30 25
138 20 24 29 25
137 20 25 29 24
137 22 28 31 24
139 21 28 30 24
133 22 33 32 24
139 21 33 32 23
139 20 31 29 23
132 20 31 30 23
142 23 35 36 23
140 21 33 29 22
142 22 33 32 22
145 22 33 32 22
137 20 31 30 22
145 20 30 31 22
139 14 21 24 22
140 18 22 26 21
144 17 22 22 21
139 17 22 23 21
136 14 14 19 21
136 11 11 17 21
133 12 13 14 20
138 12 13 15 20
134 12 13 15 20
139 17 15 17 20
140 17 16 17 20
140 17 16 15 19
150 20 20 18 19
147 20 23 21 19
146 20 31 27 19
151 22 31 28 19
146 20 29 28 19
152 20 30 31 18
150 20 32 31 18
144 18 31 31 18
148 18 32 32 18
136 15 33 32 18
132 14 30 32 17
132 15 28 29 17
129 15 18 24 17
133 13 16 22 17
131 14 16 23 16
131 14 17 20 16
133 15 15 21 16
129 14 15 18 15
136 12 14 12 15
134 11 9 11 15
134 10 8 10 15
139 10 8 8 15
137 9 9 9 14
137 9 9 9 14
135 4 12 9 14
133 3 11 11 14
139 7 13 20 14
134 10 13 20 14
136 10 15 21 13
139 14 22 29 13
138 15 23 29 13
141 15 26 35 13
135 15 25 33 13
137 15 24 32 13
139 16 24 32 13
134 14 24 31 13
138 14 24 31 13
137 18 24 31 13
134 17 21 29 13
135 15 17 24 12
130 15 16 27 12
137 16 9 17 12
137 15 12 18 12
136 16 15 22 12
142 12 15 22 12
138 12 15 21 12
139 13 15 21 12
139 13 18 20 11
134 13 18 20 11
140 15 18 20 11
135 15 18 17 11
135 13 18 17 11
137 14 15 17 11
134 16 21 24 11
139 18 18 25 11
137 17 17 26 11
131 26 19 30 11
136 25 25 29 11
131 26 31 39 10
136 25 34 44 10
135 25 35 47 10
131 26 36 48 10
141 27 36 56 10
134 26 33 57 10
135 25 33 55 10
136 25 34 54 9
137 13 34 51 9
142 14 30 51 9
140 13 22 47 9
138 13 19 39 8
141 13 16 38 8
135 13 14 38 8
135 8 14 20 8
134 10 6 13 7
135 14 9 14 7
141 14 8 14 7
137 16 8 14 7
146 18 10 19 7
147 17 14 18 7
141 17 17 34 7
146 17 20 34 6
144 19 39 39 6
143 18 40 39 6
146 16 41 39 6
139 17 42 39 6
142 17 43 52 6
139 15 43 53 6
134 14 44 54 6
137 14 41 54 5
133 15 41 42 5
139 14 37 45 5
138 14 25 43 4
137 14 26 40 4
141 14 23 40 4
136 11 20 40 4
138 11 19 25 4
139 13 19 19 3
140 20 16 20 3
157 30 31 29 3
155 30 31 28 3
153 29 30 28 3
156 29 30 32 3
153 29 37 41 3
158 29 40 42 3
156 29 45 44 2
150 36 53 44 2
153 37 52 47 2
140 31 52 39 2
135 24 47 38 1
135 24 47 35 1
131 24 47 28 1
138 25 47 30 1
135 25 41 26 1
133 25 39 27 1
134 25 32 26 1
136 9 11 22 0
144 8 13 13 0
140 8 10 12 0
141 11 10 10 0
144 10 10 10 0
142 17 18 24 0
145 16 28 28 0
143 17 33 40 0
144 17 38 62 0
146 21 51 69 0
140 24 56 77 0
146 24 60 79 0
146 24 60 85 0
136 19 59 88 0
142 17 57 88 0
138 16 58 89 0
135 14 45 87 0
137 14 45 82 0
132 11 29 67 0
138 10 23 62 0
136 8 21 49 0
133 8 13 49 0
137 8 13 38 0
134 10 5 22 0
138 9 5 23 0
137 9 5 19 0
137 8 9 18 0
139 9 14 22 0
132 10 17 35 0
137 10 17 35 0
140 13 18 38 0
127 19 19 38 0
133 19 19 37 0
131 20 20 38 0
125 19 17 37 0
129 19 15 29 0
123 19 15 29 0
127 19 15 30 1
126 22 15 22 1
121 22 16 24 1
125 20 18 18 1
128 19 20 18 2
137 22 23 21 2
138 21 25 21 2
137 21 24 21 3
141 18 23 18 3
139 19 23 18 4
142 19 21 18 4
144 19 21 18 5
146 22 25 20 5
152 22 25 20 6
148 19 24 20 6
149 23 20 19 6
150 21 18 17 7
143 21 22 18 7
145 21 22 19 8
144 19 22 18 8
138 19 46 16 8
142 20 56 16 9
138 23 67 27 9
132 21 106 30 9
132 21 128 30 10
135 25 129 32 10
139 25 132 32 11
137 24 132 32 11
147 27 132 34 11
152 30 135 31 12
154 36 116 35 12
152 47 97 46 13
152 62 118 67 13
166 66 117 68 14
164 67 105 67 14
141 59 104 62 15
150 56 107 61 15
150 52 109 58 15
139 42 104 47 16
142 41 70 38 17
138 43 43 39 17
153 47 62 51 17
151 39 88 43 18
137 34 118 41 19
147 28 130 36 19
145 27 125 36 20
142 20 130 44 20
145 18 143 46 21
136 14 141 46 21
143 14 132 47 22
141 18 129 50 22
150 27 127 54 23
154 26 124 53 24
149 26 108 51 24
148 27 91 53 25
150 31 90 51 25
141 30 82 44 26
150 32 52 37 26
150 31 47 35 27
148 31 51 38 28
148 31 85 39 28
132 27 98 40 29
134 27 103 41 29
130 27 144 48 30
137 22 162 45 30
140 18 160 44 31
138 19 160 44 32
136 14 162 43 33
132 16 161 45 33
136 20 162 44 34
140 21 144 40 35
137 19 122 28 35
146 20 122 28 36
147 20 109 27 37
146 20 127 29 37
147 23 160 21 38
142 25 161 19 39
152 35 192 56 40
154 34 262 70 40
142 29 305 77 41
146 27 305 79 42
144 30 306 79 42
146 30 310 82 43
147 34 313 81 44
136 37 306 82 45
150 40 282 85 46
150 43 276 93 46
130 32 274 85 47
139 28 213 64 48
139 20 126 37 49
139 17 121 49 49
138 18 120 49 50
129 20 134 49 51
144 25 132 53 51
141 30 167 74 52
136 33 184 78 53
139 30 177 70 54
141 26 171 59 54
138 20 176 54 55
133 13 187 62 56
133 12 183 60 56
139 14 181 60 57
137 18 163 57 58
134 18 170 57 58
133 16 143 40 59
130 14 122 30 60
134 14 124 29 60
129 13 140 39 61
131 15 136 40 62
132 15 132 32 62
127 15 140 37 63
128 14 150 39 64
122 12 166 43 64
125 12 160 43 65
128 15 237 63 66
127 17 237 62 66
130 16 265 64 67
128 16 279 63 67
132 16 279 62 68
142 18 274 63 69
143 28 271 60 69
140 30 273 63 70
142 29 256 59 70
140 29 259 59 71
148 27 211 35 72
142 24 231 39 72
143 25 221 44 73
147 25 208 43 74
141 29 215 48 74
139 35 305 86 75
133 28 309 87 76
144 24 306 88 76
143 20 303 88 77
137 18 322 97 78
138 18 302 96 78
138 16 273 96 79
134 16 255 88 79
139 15 235 84 80
130 18 279 91 81
135 21 322 88 81
136 25 319 86 82
129 24 324 85 82
137 24 322 84 83
133 24 305 76 83
132 24 315 77 84
135 26 360 95 85
133 24 361 99 85
135 21 345 98 86
135 21 341 96 86
135 20 259 75 87
145 19 272 82 88
150 23 279 85 88
164 22 291 94 89
164 23 275 87 89
157 24 277 87 90
161 28 303 106 90
157 31 300 109 91
162 31 344 118 91
165 32 344 121 92
159 30 348 123 92
158 33 345 124 93
143 30 330 119 93
135 30 340 120 94
139 29 389 127 94
143 29 386 127 95
144 24 336 104 95
144 20 322 94 96
144 21 315 96 96
150 19 304 94 97
149 23 338 108 97
148 20 316 99 98
148 19 313 100 98
138 21 310 98 99
147 21 250 85 99
140 20 249 84 100
144 22 257 82 100
146 22 272 88 101
142 25 252 103 101
138 25 255 102 102
134 23 205 89 102
139 24 206 95 103
144 26 241 94 103
144 27 300 112 104
151 27 309 111 104
151 30 352 128 105
148 29 353 139 105
152 29 334 134 106
143 26 340 120 106
147 29 341 125 107
148 28 338 120 107
142 25 344 131 107
139 32 320 146 108
132 33 292 149 108
131 34 302 151 109
136 41 263 142 109
139 48 227 127 110
147 50 337 154 110
144 50 334 154 111
148 47 358 157 111
150 47 358 154 112
150 57 449 172 112
156 54 443 161 112
156 53 413 146 113
152 53 398 151 113
160 47 401 152 114
150 37 416 153 114
153 43 418 153 114
153 45 566 193 115
140 66 563 191 115
145 66 626 205 115
140 68 602 184 116
142 68 597 179 116
143 68 616 185 117
137 68 615 181 117
134 70 614 180 117
130 71 657 198 118
127 73 637 187 118
130 73 539 161 118
129 51 519 161 119
126 53 478 157 119
126 50 407 162 119
133 52 424 170 120
145 57 479 189 120
138 59 496 217 120
142 56 494 215 120
146 56 448 209 121
140 45 385 192 121
148 52 385 194 121
147 54 384 192 122
149 52 358 181 122
152 48 349 167 122
137 45 345 162 122
135 36 258 146 123
135 39 308 117 123
135 38 306 119 123
136 39 318 119 123
135 48 326 124 124
140 36 362 116 124
141 39 379 120 124
136 59 445 138 124
143 63 472 143 124
142 63 457 143 124
139 64 444 135 124
143 68 425 139 124
136 67 427 139 124
136 67 420 135 124
130 62 385 126 124
122 59 298 117 125
125 50 297 118 125
128 44 244 111 125
127 43 205 107 124
126 42 201 101 124
132 43 185 103 124
134 28 146 66 124
133 32 158 73 124
142 30 160 73 124
144 27 159 72 124
147 27 163 69 124
154 28 177 72 124
148 26 170 68 124
156 23 166 71 123
161 23 157 68 123
159 19 147 59 123
169 19 143 61 123
165 15 126 54 123
162 13 97 53 122
167 14 92 53 122
159 15 116 58 122
164 15 98 51 122
164 15 97 55 121
161 14 86 47 121
165 14 85 48 121
156 15 94 51 121
148 18 118 60 120
149 18 110 61 120
146 17 127 61 120
146 17 174 67 119
144 18 176 63 119
148 20 178 69 119
151 19 181 66 118
139 18 183 65 118
143 19 185 67 117
141 19 183 66 117
149 16 150 47 117
154 16 142 49 116
150 17 160 58 116
153 18 129 53 115
153 17 106 49 115
140 16 112 45 115
142 15 109 45 114
140 17 114 50 114
138 17 111 51 113
141 16 115 50 113
135 13 107 46 112
140 13 107 48 112
138 12 93 41 111
141 10 87 40 111
144 9 96 44 110
141 8 91 42 110
145 8 89 42 109
144 6 74 35 109
144 8 70 25 108
149 8 57 23 108
142 8 59 23 107
138 8 79 28 107
138 8 78 27 106
134 8 78 27 106
144 10 69 20 105
141 14 69 23 105
138 18 92 30 104
143 20 90 29 104
145 24 91 35 103
156 24 101 39 102
154 30 123 57 102
151 37 118 62 101
159 41 120 67 101
155 42 122 68 100
157 42 125 70 99
156 41 126 69 99
159 39 116 67 98
168 39 124 69 98
155 33 120 62 97
152 33 119 62 96
154 31 113 52 96
152 24 104 44 95
151 17 102 36 94
144 14 102 37 94
151 20 100 37 93
153 21 101 39 92
145 21 94 39 92
142 21 88 36 91
142 23 88 35 90
139 25 78 34 90
144 25 59 28 89
144 24 80 37 88
151 25 75 40 88
151 23 71 40 87
137 13 74 38 86
145 9 80 39 86
143 8 81 36 85
147 8 74 36 85
150 9 77 38 84
144 10 98 46 83
142 13 95 47 83
138 13 82 46 82
136 13 74 43 81
139 14 65 38 81
137 14 78 40 80
137 15 85 41 79
137 14 103 45 78
133 15 125 46 78
135 14 125 45 77
131 13 105 29 76
137 11 103 29 75
137 12 107 33 75
134 11 112 33 74
139 11 114 34 74
134 10 97 31 73
138 10 103 34 73
141 13 98 32 72
134 13 67 27 71
136 12 60 26 71
132 11 46 16 70
134 11 25 9 70
138 14 62 29 69
135 20 117 45 68
134 21 127 47 67
133 22 126 46 67
129 21 123 44 66
133 19 121 41 65
129 18 123 40 65
133 17 118 38 64
135 18 111 38 64
134 19 112 41 63
142 18 116 40 63
136 14 91 29 62
138 12 87 27 62
142 11 90 28 61
137 12 89 26 61
140 16 89 27 60
137 17 73 24 60
140 17 71 24 59
144 17 72 23 59
136 14 78 21 58
136 14 80 20 58
136 14 77 18 57
137 14 61 18 57
141 12 54 20 56
137 13 54 20 55
143 10 62 26 55
144 11 74 27 54
138 11 71 27 54
143 11 71 27 53
140 10 69 27 53
141 8 67 27 52
144 8 66 27 52
141 13 73 26 51
150 14 63 18 51
148 13 54 17 50
146 13 53 13 50
154 13 50 16 49
151 13 50 16 49
151 14 48 16 48
152 16 48 16 48
150 17 48 17 47
156 17 61 18 47
149 12 82 13 46
144 11 89 12 46
145 12 87 12 45
136 12 89 11 45
139 12 89 10 44
137 12 89 10 44
137 12 91 14 43
137 16 89 19 43
128 17 88 23 43
134 19 87 23 42
133 19 63 20 42
127 22 28 20 41
136 20 18 21 41
132 17 19 19 40
123 16 16 15 40
123 14 25 18 39
120 14 27 18 39
122 15 24 18 39
120 17 23 18 38
116 16 21 18 38
118 16 28 18 37
114 15 31 19 37
114 16 30 17 36
114 15 34 16 36
118 16 33 17 35
122 16 35 16 35
117 14 38 15 35
127 12 36 14 34
126 12 33 14 34
123 12 35 13 33
135 16 32 17 33
133 16 31 16 33
133 17 31 17 32
135 16 25 14 32
133 16 25 14 32
138 16 21 15 31
135 16 15 14 31
133 16 15 15 31
135 16 15 16 31
131 15 13 15 30
130 11 11 15 30
130 9 9 16 30
136 10 9 14 30
137 10 9 14 29
131 10 8 13 29
134 10 7 13 29
135 10 9 15 29
133 10 9 15 28
141 9 8 14 28
136 10 8 14 28
137 9 8 10 28
139 9 7 10 28
132 7 7 8 27
138 8 9 10 27
134 9 10 9 27
131 11 10 13 27
136 10 9 11 27
133 11 15 12 27
136 10 24 13 27
135 10 28 13 26
134 10 28 13 26
139 10 28 14 26
136 12 30 16 26
137 13 32 16 26
138 13 31 16 26
139 11 33 15 26
144 12 32 15 26
139 12 32 16 26
138 11 26 14 26
140 11 21 20 26
133 11 20 21 26
137 12 20 20 26
133 11 21 20 26
134 10 20 20 26
137 9 20 22 25
131 9 21 25 25
128 6 21 25 25
128 6 21 22 25
124 7 20 22 25
129 8 19 17 25
125 9 20 17 25
120 9 22 17 25
121 9 19 17 25
118 9 18 16 25
124 9 17 14 25
120 10 12 9 24
123 8 11 9 24
125 7 12 10 24
119 7 11 10 24
121 7 13 11 24
120 9 15 12 23
124 10 15 12 23
126 12 17 14 23
120 12 16 14 23
124 12 17 14 23
124 12 15 15 23
119 12 14 14 23
124 10 16 11 23
126 15 15 13 23
132 16 20 21 23
134 17 20 23 23
129 21 20 24 23
135 20 20 24 23
133 22 22 25 22
128 24 22 26 22
134 23 21 25 22
131 22 19 24 22
135 22 18 24 22
130 12 14 16 22
127 12 13 13 22
133 13 13 13 22
129 11 12 13 22
133 10 9 9 22
134 9 9 9 22
133 7 8 6 22
136 5 6 6 22
132 5 7 6 22
139 7 10 8 22
140 8 11 8 22
135 11 11 9 22
140 11 11 9 22
138 12 10 9 21
140 14 10 10 21
145 13 11 10 21
142 13 11 10 21
147 13 11 10 21
147 14 9 10 21
140 11 26 8 21
145 9 45 9 21
143 10 45 10 21
142 12 45 11 21
142 10 53 10 21
136 10 70 11 21
141 13 90 11 21
138 13 109 11 21
136 13 113 12 21
139 13 112 15 21
134 13 106 15 21
139 13 95 13 21
135 11 100 13 21
134 8 119 14 21
138 8 129 14 21
132 8 125 16 21
134 6 113 20 21
134 6 89 19 21
130 8 83 22 22
132 11 80 21 22
126 11 80 22 22
128 11 81 25 22
131 12 82 25 22
129 12 81 29 22
131 12 80 29 22
128 12 76 29 23
126 12 76 27 23
129 12 76 28 23
127 13 74 27 23
130 11 74 26 24
129 11 87 28 24
127 11 123 29 24
130 9 158 37 25
124 9 159 32 25
125 9 150 34 25
126 9 201 45 26
119 8 231 48 26
125 8 233 48 27
121 7 238 54 27
126 8 239 54 27
127 8 238 54 28
121 9 223 55 28
126 11 201 51 29
125 12 185 50 29
125 13 186 50 30
130 13 161 42 30
129 12 125 39 31
134 10 127 40 31
132 11 113 31 32
129 11 110 30 32
136 11 107 31 33
131 9 111 25 34
137 9 113 24 34
137 8 112 23 35
135 9 101 20 36
141 10 71 18 36
138 10 104 20 37
137 11 152 32 38
141 10 159 31 38
139 10 164 38 39
143 11 196 45 40
141 11 194 45 41
141 11 184 45 41
146 11 182 47 42
141 11 215 52 43
144 11 236 56 44
144 11 234 58 44
142 8 228 54 45
146 6 232 54 46
141 6 232 52 47
140 8 213 47 48
142 9 211 49 49
137 8 227 51 49
147 8 245 51 50
144 8 222 47 51
141 8 193 40 52
145 8 188 38 53
138 9 163 35 54
141 10 158 36 54
140 9 162 38 55
143 9 171 41 56
147 9 167 40 57
139 9 171 46 58
134 9 166 53 59
135 8 158 54 60
128 5 173 56 60
134 6 199 66 61
131 6 201 66 62
128 7 192 66 63
132 13 214 76 64
130 21 201 71 64
129 20 201 71 65
127 22 205 74 66
127 23 178 68 67
130 23 177 68 67
125 23 171 66 68
128 22 146 51 69
128 23 135 51 70
133 23 151 53 70
135 21 143 47 71
125 12 132 49 72
136 16 137 60 72
135 25 127 66 73
127 36 143 78 74
140 39 148 80 74
139 38 158 85 75
132 36 161 92 76
134 35 164 92 77
135 34 140 89 77
132 28 113 80 78
127 24 132 70 78
124 25 133 69 79
134 28 163 72 80
136 24 205 72 80
131 20 202 72 81
131 20 236 65 82
138 28 236 67 82
137 29 241 65 83
124 25 241 65 84
134 22 264 74 84
136 20 259 68 85
130 18 254 59 85
133 18 256 63 86
132 18 254 63 87
143 21 253 59 87
144 21 211 55 88
137 18 211 51 89
145 16 209 52 89
145 16 209 55 90
138 17 199 65 90
141 17 177 64 91
137 14 159 63 92
146 14 158 61 92
145 12 170 72 93
134 14 201 86 93
148 24 204 84 94
146 25 241 97 95
145 24 233 97 95
147 25 252 98 96
144 24 251 85 96
148 26 337 100 97
146 29 339 102 98
140 29 359 105 98
141 35 428 121 99
134 35 411 110 99
130 32 436 127 100
128 43 426 125 100
136 44 429 130 101
135 44 421 134 101
132 44 423 138 102
137 45 349 136 102
137 48 366 148 103
127 49 401 166 103
142 37 282 139 104
140 31 322 156 104
141 38 299 149 105
140 36 297 146 105
130 36 315 156 106
141 36 308 147 106
138 33 301 140 107
137 33 314 138 107
144 31 304 131 108
142 27 263 104 108
136 23 299 109 109
136 23 272 97 109
136 25 271 88 110
147 23 329 143 110
142 22 306 119 110
150 30 310 118 111
153 29 387 144 111
146 30 377 142 112
152 34 482 158 112
150 34 491 162 112
148 39 498 167 113
154 41 496 167 113
151 42 497 169 114
147 44 479 140 114
144 59 601 185 115
136 57 605 186 115
139 59 565 174 115
141 57 564 175 116
150 56 463 155 116
154 64 472 161 116
152 61 457 157 117
151 60 474 153 117
143 62 427 136 117
145 59 511 171 118
149 52 404 131 118
151 61 402 130 118
164 61 442 148 119
160 67 471 161 119
152 72 502 172 119
159 70 485 164 120
151 81 485 164 120
159 81 463 166 120
159 72 444 158 121
169 72 399 138 121
174 73 366 139 121
165 68 366 140 122
161 70 281 111 122
164 62 240 98 122
156 63 150 76 123
164 61 176 78 123
169 49 174 77 123
164 63 160 69 123
169 58 174 59 124
159 80 194 61 124
171 108 195 59 124
168 111 199 58 124
165 111 185 56 124
160 115 205 79 125
161 115 203 77 125
153 119 190 85 125
150 113 181 93 125
158 90 155 93 125
162 91 194 99 125
153 92 172 100 125
149 72 183 99 125
151 66 186 99 125
150 63 190 105 125
155 57 204 91 125
150 53 210 93 125
157 39 207 89 125
159 32 202 77 125
148 27 197 77 125
148 28 167 70 125
148 26 165 68 125
147 29 152 69 124
151 29 143 69 124
144 25 139 61 124
155 15 77 50 124
155 15 68 44 124
154 14 67 43 123
161 19 68 49 123
160 19 70 49 123
157 20 75 54 123
158 20 75 57 122
148 24 81 60 122
152 23 82 59 122
149 26 126 70 121
141 26 126 72 121
142 26 129 69 121
131 26 152 73 120
134 23 149 69 120
130 29 192 82 120
136 27 186 76 119
137 28 193 79 119
136 28 196 77 118
143 28 197 80 118
143 28 174 72 118
142 28 173 71 117
149 28 170 70 117
144 27 142 65 116
138 26 144 65 116
145 17 97 41 115
134 19 95 41 115
149 19 95 38 114
148 20 105 38 114
142 19 112 33 113
145 16 108 29 113
141 17 108 29 112
145 17 109 28 112
145 17 110 31 111
150 17 95 28 111
147 17 86 28 110
146 15 101 36 110
143 15 100 35 109
145 16 86 38 109
147 16 89 42 108
156 17 98 47 107
153 16 103 48 107
152 18 103 52 106
155 19 112 59 106
145 16 115 59 105
154 15 126 62 105
152 16 121 58 104
150 16 114 58 103
152 14 106 57 103
144 14 108 54 102
141 12 103 48 102
140 12 95 44 101
135 13 97 46 100
144 8 86 31 100
141 11 122 51 99
135 11 104 46 98
137 12 130 64 98
133 15 173 78 97
136 15 176 76 96
130 14 173 75 96
130 14 176 75 95
134 14 176 75 94
133 15 176 77 94
131 16 170 76 93
129 13 127 57 92
130 16 142 62 92
135 17 139 54 91
130 14 94 35 90
129 17 76 34 90
132 25 80 42 89
140 27 76 42 89
146 29 92 53 88
143 32 96 56 87
142 32 88 58 86
145 35 93 61 86
139 33 106 66 85
137 36 99 66 84
133 36 102 66 83
142 35 104 66 83
150 33 103 62 82
139 31 103 62 81
144 30 83 52 81
142 27 68 45 80
136 31 81 53 79
150 34 93 55 79
146 33 68 36 78
161 31 70 37 78
161 31 62 34 77
155 32 64 36 76
149 28 67 34 76
141 23 66 33 75
138 24 64 34 74
143 25 63 36 74
143 24 63 30 73
140 16 65 29 73
139 16 96 32 72
132 17 114 37 71
135 19 116 39 71
129 17 114 34 70
142 14 111 31 69
142 14 109 28 69
139 15 111 31 68
141 17 116 37 68
138 16 108 33 67
136 15 108 31 67
138 15 85 29 66
132 16 50 28 66
137 17 42 27 65
136 19 42 27 65
130 14 57 30 64
137 9 75 37 64
134 10 77 37 63
139 11 75 34 63
138 12 83 35 62
138 12 87 35 61
142 12 87 36 61
137 12 85 33 60
141 12 66 25 60
141 9 63 25 59
139 9 65 23 59
140 7 59 14 58
135 8 60 14 58
138 8 60 13 57
140 9 47 13 57
132 8 26 13 57
140 7 30 11 56
138 9 34 9 56
136 9 60 13 55
139 9 107 25 54
135 11 114 28 54
139 12 114 28 54
138 12 112 27 53
132 12 113 27 53
138 12 112 29 52
134 11 113 30 52
134 11 105 30 51
135 10 98 30 51
132 10 102 32 50
134 10 76 26 50
129 8 66 22 50
125 3 59 17 49
130 5 55 17 49
130 5 32 14 49
135 6 26 14 48
131 7 28 17 48
129 7 28 17 48
133 8 27 18 47
127 9 24 16 47
131 9 20 15 47
131 9 26 14 46
132 9 29 15 46
135 8 29 14 45
128 8 28 14 45
131 8 24 14 44
133 6 26 10 44
128 6 26 10 44
136 6 22 9 43
133 5 25 9 43
135 5 30 10 42
138 5 31 9 42
133 6 26 9 42
138 5 28 11 41
136 7 41 14 41
134 7 43 14 41
140 7 43 14 40
136 7 44 14 40
136 5 44 12 40
136 5 44 12 39
136 10 42 11 39
141 10 36 10 38
135 14 34 10 38
139 15 33 11 38
141 15 22 11 37
137 16 20 14 37
140 15 21 14 37
138 15 19 15 36
139 15 15 15 36
142 15 15 15 36
135 15 16 15 35
140 15 15 15 35
140 12 12 14 35
132 11 9 14 34
141 15 9 11 34
136 15 9 10 34
137 14 8 10 33
137 11 6 6 33
133 10 8 9 33
134 9 8 11 32
133 25 31 29 32
133 25 32 29 31
137 29 40 37 31
137 29 40 37 31
140 27 41 38 30
137 27 40 38 30
139 26 39 37 30
140 27 43 43 30
133 28 43 43 29
138 26 40 39 29
136 23 35 35 29
132 23 37 36 28
134 21 30 30 28
128 22 31 30 28
127 21 28 28 27
127 21 29 30 27
121 22 30 31 27
129 18 13 16 27
129 12 12 16 26
128 14 10 16 26
131 11 8 11 26
125 11 9 9 26
128 9 8 7 26
126 12 17 16 25
126 12 16 17 25
129 12 16 17 25
125 14 17 18 25
134 17 20 22 25
135 16 19 23 25
135 16 18 22 25
139 16 18 21 24
136 15 18 20 24
141 15 18 20 24
142 14 14 20 24
134 16 15 21 24
141 17 14 21 24
137 16 15 20 24
132 11 10 17 24
133 11 9 18 24
128 12 16 20 24
133 12 17 20 24
133 12 17 20 24
130 12 18 19 23
135 12 18 18 23
133 8 18 16 23
140 9 18 17 23
141 9 18 17 23
136 9 17 17 23
144 9 17 11 23
140 9 11 9 23
137 9 17 15 23
139 8 17 15 22
137 8 16 16 22
143 9 16 15 22
141 15 18 18 22
140 18 20 20 22
146 21 23 25 22
143 21 23 26 21
143 21 23 26 21
142 21 23 27 21
143 20 19 23 21
150 22 19 23 21
145 21 19 23 21
145 21 18 23 21
145 19 17 23 21
137 13 17 20 20
141 12 15 17 20
137 12 15 16 20
140 12 14 16 20
145 14 14 14 20
141 14 14 14 20
141 11 12 13 20
139 16 13 10 20
140 19 13 15 19
146 20 24 22 19
139 20 22 23 19
139 19 22 23 19
139 19 22 23 19
134 19 22 22 19
137 18 20 26 19
131 21 19 27 18
128 22 20 27 18
130 20 21 28 18
121 19 21 26 18
127 22 19 23 18
125 22 19 23 18
128 23 19 23 18
132 23 19 24 17
125 22 20 24 17
124 23 21 23 17
124 19 20 19 17
126 19 20 18 17
129 19 21 22 17
127 18 23 24 17
127 12 17 20 16
127 12 17 19 16
119 11 17 19 16
125 13 17 24 16
121 18 30 31 16
126 18 31 34 16
131 28 39 38 16
129 27 39 38 15
135 27 39 38 15
132 28 38 36 15
131 28 38 35 15
138 31 38 36 15
133 31 38 36 15
138 30 38 35 14
139 41 43 38 14
143 46 53 57 14
143 44 49 55 14
137 44 50 54 14
142 44 50 54 14
144 45 50 55 14
141 45 52 63 14
146 44 52 63 13
145 44 52 63 13
148 44 54 67 13
148 25 30 56 13
139 20 22 42 13
139 24 22 43 13
138 26 22 43 13
134 25 22 43 13
137 20 22 40 12
133 21 21 28 12
134 21 22 28 12
132 22 21 35 12
125 20 16 23 12
129 19 16 22 12
125 20 16 33 12
132 14 16 32 12
132 10 14 32 11
127 11 15 33 11
130 12 15 33 11
125 11 14 33 11
126 11 12 33 11
130 10 12 24 10
127 9 11 25 10
133 10 11 33 10
131 10 25 31 10
129 9 23 33 9
133 9 23 34 9
128 8 22 34 9
132 7 21 34 9
132 8 22 33 9
129 9 24 33 8
135 8 25 33 8
129 9 25 32 8
133 11 25 27 8
134 11 14 22 8
128 11 13 16 8
136 10 12 18 7
133 10 24 19 7
134 11 24 25 7
136 14 24 28 7
129 15 23 35 7
134 15 23 36 7
134 15 23 36 7
127 14 23 36 7
133 12 23 34 7
131 11 23 34 7
136 16 23 27 6
138 16 13 27 6
134 16 14 25 6
139 16 19 24 6
136 15 19 14 6
136 15 30 12 6
138 14 38 12 6
134 14 38 11 6
138 14 44 12 6
135 14 60 12 6
130 7 61 12 6
134 7 61 12 6
128 7 62 13 6
134 6 67 13 6
134 6 67 14 6
134 7 62 12 6
138 7 58 12 6
135 7 69 18 7
136 10 112 25 7
138 10 123 25 7
134 10 117 30 7
138 10 128 32 8
136 10 134 34 8
137 11 134 41 9
142 12 132 43 9
137 11 135 42 9
140 12 132 42 10
138 11 131 41 11
136 9 104 38 11
140 9 66 39 12
135 9 76 37 13
140 8 73 35 13
140 8 72 31 14
134 6 65 24 15
140 9 70 19 15
138 13 72 23 16
134 16 71 23 17
139 19 72 22 17
138 18 71 27 18
141 17 104 30 19
138 16 102 28 20
137 14 92 27 20
141 12 104 30 21
139 22 104 32 22
139 24 106 35 22
137 26 111 43 23
145 30 134 56 24
142 29 150 58 25
132 28 151 55 25
143 28 129 49 26
143 29 105 38 27
132 25 104 33 27
140 17 104 31 28
137 17 93 28 29
131 11 88 31 29
133 14 169 63 30
127 22 202 74 31
136 27 193 77 31
137 32 190 77 32
123 35 192 72 33
133 32 195 69 34
133 29 194 65 34
132 25 190 64 35
129 19 189 67 36
133 12 189 66 37
133 11 174 63 37
124 14 150 60 38
124 14 140 63 39
126 13 151 65 40
128 11 147 64 41
129 13 154 76 41
125 15 151 77 42
124 15 148 77 43
127 14 131 73 44
122 13 126 73 45
127 13 121 72 46
125 12 112 67 46
125 15 134 65 47
126 17 127 68 48
119 19 140 70 49
124 16 122 51 50
124 13 124 42 50
119 10 129 40 51
124 10 126 36 52
121 11 139 40 53
128 16 151 49 54
128 20 174 57 54
123 20 152 55 55
131 19 154 48 56
131 18 145 47 57
131 17 144 47 58
135 15 131 46 59
132 13 109 42 59
133 8 116 43 60
130 7 118 43 61
126 7 109 39 62
133 6 74 30 62
129 7 108 29 63
133 11 185 59 64
133 10 186 59 65
130 11 264 79 66
133 10 274 84 66
127 35 297 114 67
137 41 296 115 68
141 40 306 117 69
138 43 304 117 69
140 43 317 118 70
139 43 315 119 71
140 46 279 113 72
142 47 278 113 72
134 46 247 106 73
144 46 243 98 74
144 33 216 73 75
134 21 217 73 75
142 21 207 72 76
137 20 208 75 77
141 20 197 68 77
142 20 198 76 78
137 20 174 71 79
143 20 174 70 80
143 20 185 74 80
142 22 170 82 81
148 25 218 104 82
150 30 294 122 82
145 31 307 129 83
143 32 310 130 84
139 32 293 129 84
143 32 295 128 85
134 33 294 128 86
143 33 337 138 86
143 32 319 127 87
143 31 306 113 88
142 34 303 108 88
131 28 241 86 89
138 21 274 79 89
140 23 321 88 90
143 25 323 89 91
144 26 339 87 91
143 26 344 91 92
139 26 315 83 92
143 28 314 89 93
138 31 322 103 94
146 31 301 98 94
145 32 329 113 95
142 32 306 110 95
144 33 320 118 96
135 35 338 130 96
147 34 328 132 97
148 31 322 131 97
144 31 314 122 98
149 31 319 123 98
140 27 323 119 99
138 26 354 128 99
139 21 309 111 100
133 20 316 111 100
137 19 284 102 100
135 12 265 84 101
131 10 254 83 101
135 13 290 94 102
133 16 290 92 102
136 17 274 89 102
135 16 267 92 103
137 16 242 83 103
141 18 244 89 103
141 18 226 101 104
155 17 197 99 104
159 19 226 113 104
153 19 225 120 105
161 18 208 114 105
155 18 215 116 105
154 17 214 118 105
156 21 327 133 106
149 23 337 130 106
159 22 339 127 106
157 21 340 111 107
148 15 348 111 107
153 16 346 106 107
148 16 342 103 108
146 16 324 96 108
146 18 336 103 108
149 23 326 102 108
159 30 274 106 109
156 31 236 106 109
154 32 235 111 109
158 32 226 113 110
153 32 200 107 110
155 37 279 129 110
155 38 288 129 110
165 40 319 145 111
169 40 298 139 111
164 43 352 146 111
167 42 323 136 112
166 48 362 150 112
167 52 404 155 112
184 57 404 154 112
181 58 406 153 113
188 55 384 138 113
184 57 376 138 114
177 56 381 141 114
182 55 388 141 114
176 48 338 119 115
169 59 444 169 115
172 60 430 156 115
169 58 389 147 116
153 52 391 147 116
150 53 392 146 116
142 52 334 147 117
156 71 404 199 117
150 72 415 196 117
155 71 416 197 118
153 71 411 195 118
151 59 278 145 118
158 54 233 137 119
152 73 468 229 119
149 83 483 233 119
148 84 506 246 120
147 85 511 241 120
142 66 465 202 120
136 63 471 202 121
138 64 469 202 121
143 69 466 206 121
145 69 453 203 121
150 68 451 204 122
146 53 292 130 122
151 39 297 129 122
158 37 220 90 122
153 35 186 84 122
149 33 229 86 122
148 38 258 96 122
137 38 261 98 122
148 39 262 96 122
144 39 259 97 122
137 37 247 89 122
139 37 247 88 122
140 33 207 75 122
141 27 166 58 122
137 27 173 60 122
143 26 166 62 122
149 26 115 45 121
146 21 99 41 121
145 13 84 27 121
143 12 78 24 121
147 17 112 39 121
151 17 112 38 120
142 19 152 56 120
141 20 175 59 120
142 24 191 69 120
142 25 185 70 119
154 23 168 67 119
149 23 174 71 118
149 24 184 74 118
150 24 184 73 118
140 18 145 58 117
144 15 152 62 117
143 16 138 55 117
148 16 115 53 116
150 11 78 38 116
138 10 73 33 115
139 17 62 36 115
139 16 82 35 114
136 16 95 33 114
142 16 97 34 113
140 15 98 39 113
146 15 91 36 112
147 15 92 39 111
141 16 92 39 111
149 16 94 42 110
147 19 99 50 110
140 12 90 40 109
143 13 102 48 108
140 12 89 49 108
144 12 87 49 107
141 13 84 46 107
141 13 88 48 106
143 12 86 46 105
137 14 88 51 105
141 14 102 53 104
141 12 104 50 103
141 14 103 52 102
144 15 90 45 102
139 18 83 42 101
147 23 92 51 100
148 22 96 51 99
139 22 90 47 99
142 24 87 49 98
140 22 87 45 97
141 22 74 38 96
144 21 56 32 96
138 21 67 33 95
144 20 80 40 94
144 22 91 47 93
146 21 93 44 92
150 21 119 55 92
147 21 152 68 91
150 20 160 70 90
152 22 160 71 89
145 20 164 72 88
153 20 164 72 87
150 20 160 71 87
154 21 148 65 86
156 19 124 55 85
145 17 129 56 84
148 17 129 57 83
143 17 90 40 83
139 19 63 38 82
147 23 63 38 81
146 24 58 39 80
143 24 66 41 79
139 22 101 43 79
137 22 111 43 78
140 22 114 46 77
135 22 123 50 76
136 19 112 40 76
139 20 112 42 75
142 19 113 39 74
142 13 109 39 73
135 11 111 36 73
135 12 113 32 72
141 12 89 22 71
135 15 68 22 71
141 14 70 22 70
137 13 65 18 69
139 12 78 20 69
144 19 102 41 68
140 26 103 43 67
141 25 115 49 67
141 26 151 58 66
140 26 167 65 65
144 26 161 63 65
139 26 155 64 64
138 27 155 64 64
140 27 158 66 63
136 27 158 66 63
139 23 141 54 62
133 16 128 51 62
136 16 125 48 61
140 17 89 38 61
139 17 29 12 60
138 18 33 15 60
135 15 45 19 59
136 13 38 17 59
144 19 64 37 58
139 19 85 43 57
144 19 93 42 57
144 19 94 43 56
140 19 99 43 56
143 19 98 43 55
137 18 105 44 54
141 16 106 41 54
143 12 87 32 53
138 12 89 33 53
144 9 88 25 52
141 9 80 21 52
138 9 77 21 51
140 9 77 20 51
137 9 72 17 50
141 8 72 17 50
140 10 60 14 49
144 13 33 17 49
150 14 36 17 48
145 14 37 15 47
142 15 37 15 47
145 15 43 17 46
134 30 42 29 46
139 30 40 29 45
136 30 48 29 45
136 30 57 29 44
138 29 57 28 44
127 28 57 27 44
128 28 60 28 43
125 28 64 28 43
123 26 65 27 42
125 25 59 26 42
128 8 61 11 41
131 8 61 11 41
129 8 53 9 41
124 7 37 9 40
132 7 24 9 40
127 7 21 10 39
136 15 22 15 39
137 16 20 15 38
137 18 20 17 38
139 18 22 18 38
136 19 22 18 37
132 18 22 19 37
136 17 23 20 36
133 17 22 19 36
134 17 22 20 36
132 18 27 20 35
126 13 22 15 35
130 10 18 15 34
126 9 18 14 34
132 9 21 13 33
133 13 21 15 33
137 13 21 14 33
140 12 21 10 32
137 12 23 11 32
138 11 23 11 31
141 12 18 13 31
134 12 15 13 30
136 13 14 15 30
133 22 21 20 30
131 22 20 20 29
132 21 20 19 29
126 21 20 20 29
134 22 20 21 28
132 22 20 21 28
130 22 20 20 28
133 21 19 20 27
129 21 20 20 27
136 20 18 19 27
136 10 12 14 26
133 10 12 16 26
137 13 17 17 26
132 13 19 18 25
128 13 19 19 25
130 13 19 19 25
124 13 19 19 25
131 13 19 19 25
130 12 19 18 24
128 13 18 18 24
131 12 19 18 24
126 12 18 17 24
136 10 13 16 24
135 10 11 15 24
135 9 10 12 23
141 10 10 12 23
138 9 9 12 23
139 10 11 16 23
141 10 21 17 23
137 9 21 17 23
141 10 21 17 22
138 10 21 17 22
135 9 21 16 22
137 9 21 15 22
131 9 21 15 22
133 8 21 14 22
132 8 21 14 21
129 8 20 10 21
132 7 8 8 21
126 6 8 8 21
131 5 8 9 21
131 8 8 9 21
130 8 10 9 20
136 9 11 14 20
132 9 10 16 20
134 9 10 19 20
137 9 18 21 20
134 11 18 21 20
134 18 22 22 20
131 17 23 23 20
133 18 24 25 19
134 16 24 27 19
126 13 26 29 19
130 13 28 30 19
130 13 26 29 18
128 14 26 26 18
130 14 24 25 18
124 15 25 26 18
134 12 23 27 17
133 13 23 26 17
128 13 20 24 17
133 13 20 21 17
131 13 17 19 17
128 11 11 12 16
132 9 9 12 16
129 9 12 14 16
133 9 12 13 16
130 8 12 13 16
127 11 13 12 15
132 11 13 12 15
128 15 14 13 15
132 14 14 13 15
133 17 18 14 15
132 17 20 13 15
136 17 19 13 14
129 17 17 11 14
130 15 13 8 14
131 14 14 8 14
128 14 14 8 14
134 13 13 8 14
129 12 13 9 13
134 12 13 9 13
135 8 11 9 13
132 8 9 9 13
129 17 15 14 13
127 17 15 15 13
129 17 14 16 13
134 17 15 15 12
128 17 16 16 12
134 17 16 16 12
134 17 16 16 12
128 16 17 16 12
132 16 16 17 12
130 18 17 17 11
140 12 14 13 11
141 12 15 13 11
139 12 13 19 11
143 12 14 22 11
140 11 19 22 11
137 11 20 23 11
141 11 20 23 10
134 11 19 23 10
137 12 19 23 10
133 8 19 24 10
129 7 19 25 10
134 7 20 24 9
129 7 20 15 9
132 7 20 12 9
132 8 12 11 9
127 8 8 11 9
132 8 9 9 8
129 8 7 10 8
129 7 7 12 8
130 7 9 16 8
124 8 14 27 8
128 8 13 29 7
125 8 21 31 7
129 14 23 31 7
131 15 26 42 7
126 16 38 42 7
130 16 37 48 7
129 16 38 48 7
132 19 38 50 6
136 19 40 49 6
133 18 40 42 6
134 19 39 43 6
134 19 37 39 5
126 15 36 39 5
131 12 33 30 5
128 10 20 33 5
132 17 20 22 4
135 17 16 23 4
127 14 15 20 4
132 14 12 18 4
130 14 12 23 4
133 14 12 21 4
137 14 13 22 4
131 15 10 23 3
138 16 12 23 3
138 22 14 23 3
139 23 25 27 3
143 24 30 30 3
139 25 37 47 3
143 25 39 47 3
144 25 40 52 3
138 25 40 52 3
145 25 39 52 2
143 24 40 50 2
141 23 40 49 2
144 11 37 45 2
135 6 33 44 2
139 5 27 38 2
139 5 23 25 1
134 8 34 26 1
136 7 36 13 1
132 8 36 13 1
136 10 47 15 1
135 10 51 15 1
134 14 51 18 1
135 15 52 21 1
129 16 52 21 1
132 16 54 21 1
133 16 54 23 1
129 16 44 23 1
134 15 36 22 1
131 16 38 22 1
127 13 41 18 1
130 15 39 17 1
121 14 50 16 2
130 14 79 12 2
130 12 89 12 2
127 12 87 12 3
132 10 106 14 3
128 10 119 13 3
132 10 120 18 4
132 11 123 20 4
128 11 122 20 5
133 9 123 21 5
130 9 122 22 6
131 10 111 23 7
133 10 106 23 7
127 10 111 22 8
131 10 99 16 8
128 10 111 31 9
125 11 129 32 10
131 13 125 31 10
130 14 120 32 11
129 17 125 41 12
128 15 118 37 13
124 16 122 35 14
130 16 113 33 14
125 13 90 31 15
129 11 101 33 16
131 17 127 40 17
134 23 116 44 18
133 25 120 44 19
126 25 118 50 20
131 22 137 52 21
133 21 146 53 22
126 16 149 52 23
136 14 164 49 24
135 10 170 42 25
132 11 170 43 26
137 13 168 47 27
130 16 184 56 28
137 17 205 62 29
137 20 204 59 30
132 20 212 55 31
141 19 242 60 32
139 22 242 62 33
132 16 236 63 34
133 17 231 64 35
126 19 233 71 36
138 24 234 70 37
136 26 240 67 38
130 31 213 61 39
135 29 216 60 41
131 29 187 54 42
139 29 131 49 43
136 22 133 43 44
134 21 148 44 45
139 21 170 45 46
137 21 168 45 47
131 20 194 58 48
131 20 178 60 49
134 14 224 74 50
138 12 238 72 51
136 12 240 73 53
126 12 249 74 54
128 12 248 74 55
125 11 244 73 56
130 11 231 70 57
129 11 239 68 58
128 11 215 59 59
130 11 212 56 60
121 10 173 42 61
117 12 144 40 62
119 21 156 54 63
124 20 181 60 64
126 20 185 60 65
120 20 214 64 66
118 20 261 73 67
120 22 263 77 68
114 27 262 78 69
115 32 262 77 70
114 34 258 80 71
126 34 256 80 72
127 27 245 66 73
113 22 206 59 74
120 19 210 55 75
120 18 195 53 75
120 16 138 47 76
124 17 149 58 77
122 19 198 74 78
126 18 201 75 79
126 18 199 71 80
126 19 201 76 81
134 22 207 78 81
133 24 195 71 82
136 26 179 73 83
140 26 186 71 83
137 26 186 80 84
149 25 280 88 85
146 29 356 117 86
157 33 357 118 86
156 35 421 126 87
139 34 421 119 88
152 39 423 118 89
151 42 435 124 89
141 43 442 127 90
143 44 432 136 91
141 44 446 143 91
143 50 419 145 92
143 57 308 110 93
133 58 316 112 93
153 60 268 108 94
157 58 283 109 95
146 45 279 89 95
144 40 220 72 96
142 46 220 87 96
148 46 238 80 97
148 47 268 74 98
139 48 250 68 98
147 44 239 69 99
148 43 211 71 99
146 38 191 63 100
141 29 188 56 100
138 28 177 58 101
153 29 243 71 102
157 31 246 61 102
161 31 232 56 103
160 30 210 58 103
153 37 240 72 104
158 36 254 75 104
151 39 288 106 105
144 41 311 109 105
151 41 364 129 105
143 50 403 150 106
144 48 397 157 106
136 45 411 161 107
134 44 409 164 107
144 51 405 177 108
144 47 395 175 108
144 52 378 171 109
144 51 377 154 109
140 50 385 157 110
141 50 342 148 110
142 45 312 131 111
131 45 306 120 111
132 48 315 118 112
118 64 303 115 112
129 68 320 102 113
127 68 322 101 113
118 63 323 99 114
127 75 326 112 114
133 108 281 97 115
144 122 291 100 115
141 138 252 95 116
142 150 266 95 116
142 151 217 89 117
163 166 227 94 117
155 179 213 96 117
160 180 219 107 118
166 180 213 107 118
175 172 188 101 118
167 131 193 100 119
169 140 174 102 119
170 138 174 101 119
170 134 139 97 120
179 135 126 87 120
165 112 108 80 120
174 58 109 78 120
174 30 84 63 120
166 30 83 63 120
163 36 75 46 121
159 37 69 46 121
152 32 72 40 121
162 32 70 43 121
157 32 74 57 121
156 31 75 57 121
156 31 81 58 120
145 29 83 57 120
148 29 67 55 120
146 17 46 50 120
143 13 56 53 120
146 14 61 53 120
142 14 62 52 120
146 13 63 47 120
145 11 62 28 120
146 11 63 26 119
155 10 58 24 119
154 12 57 33 119
161 18 68 38 119
160 20 84 40 118
153 25 132 58 118
160 26 147 62 118
154 26 146 64 117
153 25 145 63 117
153 25 142 61 117
148 26 140 61 116
146 23 127 60 116
140 18 106 50 115
135 19 122 56 115
139 20 125 57 115
140 19 91 39 114
139 14 55 23 114
139 14 58 25 113
141 27 141 81 113
147 27 141 81 112
141 32 193 107 112
146 36 223 119 111
150 38 224 119 111
150 38 223 119 110
156 38 223 119 110
150 39 225 122 109
158 39 226 122 109
160 38 224 121 108
153 25 149 79 107
155 28 157 86 107
152 25 125 65 106
153 23 69 43 106
156 20 66 41 105
149 20 61 39 105
151 21 71 46 104
151 15 57 36 103
142 14 67 43 103
150 14 67 47 102
143 16 84 49 101
147 14 92 44 100
148 14 99 43 100
143 14 99 43 99
146 14 99 45 98
142 16 98 44 98
141 13 82 27 97
147 13 89 30 97
144 13 94 30 96
144 12 112 45 95
141 12 101 42 95
137 13 101 46 94
141 14 99 52 93
131 15 96 52 93
136 15 101 52 92
136 14 103 52 91
134 13 120 56 90
135 13 134 58 90
129 13 130 56 89
131 11 108 39 88
133 10 111 40 88
133 9 110 37 87
137 9 107 32 86
137 13 106 32 85
137 13 97 32 85
142 16 99 32 84
143 23 90 30 83
146 24 50 21 82
147 25 55 45 82
142 25 64 46 81
145 26 69 46 80
137 23 68 48 80
142 23 69 48 79
141 15 74 49 78
133 14 69 47 78
133 21 67 48 77
122 22 57 42 76
132 22 50 39 76
131 22 43 23 75
131 21 42 25 75
135 20 47 28 74
132 21 69 37 73
138 23 68 37 73
140 22 59 35 72
140 23 55 39 72
147 20 55 43 71
147 18 58 44 70
139 16 82 46 70
147 15 118 52 69
144 15 127 52 68
148 17 121 49 68
148 15 104 34 67
135 12 101 27 67
146 11 105 30 66
138 11 112 34 65
142 13 116 36 65
142 14 121 38 64
136 14 114 36 64
133 15 74 28 63
128 14 38 20 63
130 13 30 19 62
138 14 32 20 62
136 13 40 22 61
134 16 43 27 61
134 17 55 31 60
128 16 87 39 59
133 13 92 37 59
131 14 90 36 58
137 15 93 37 57
139 15 93 37 57
132 16 92 37 56
137 10 85 33 56
135 9 69 25 55
142 12 69 25 55
143 13 75 25 54
136 13 66 18 54
139 16 58 18 53
138 18 57 18 53
142 21 45 15 52
143 23 31 16 52
137 23 19 15 51
138 23 19 14 51
138 23 21 15 50
126 17 21 11 50
136 9 25 12 49
134 8 22 13 49
137 8 49 15 48
140 8 84 19 47
128 13 96 19 47
133 13 94 18 46
132 14 92 16 46
127 15 91 16 45
128 14 95 21 44
126 14 95 20 44
124 14 90 18 43
122 14 88 18 43
127 14 84 19 42
127 16 58 18 42
125 16 30 22 41
132 16 29 21 41
135 17 29 21 40
133 18 29 22 39
140 14 22 16 39
135 16 19 16 38
138 16 18 16 38
142 17 14 17 37
135 20 15 18 37
144 19 16 24 36
143 18 17 21 35
136 18 16 20 35
139 18 16 20 34
133 17 16 21 34
138 19 16 21 33
138 16 15 21 32
135 17 15 21 32
138 17 15 18 31
132 15 16 15 31
134 17 18 12 30
135 20 15 12 30
133 20 15 11 29
143 20 15 11 29
141 20 16 11 28
138 14 15 9 28
142 10 13 9 27
137 9 14 9 27
142 8 14 7 26
139 11 15 9 26
136 11 12 7 25
141 9 12 9 25
137 11 14 19 25
138 11 19 18 24
137 12 22 18 24
139 18 22 22 23
143 18 24 23 23
139 19 28 27 23
141 19 28 27 22
142 19 28 27 22
138 19 29 27 22
148 19 29 26 21
146 19 30 23 21
144 17 26 22 21
147 13 21 24 20
138 11 23 22 20
145 13 23 24 20
144 10 20 19 19
147 12 19 19 19
153 13 20 19 18
149 13 20 19 18
149 11 19 19 18
149 11 15 18 17
145 12 18 19 17
150 12 17 15 17
146 12 16 16 16
144 11 14 15 16
147 12 21 20 16
135 15 28 31 16
138 14 31 35 15
135 14 32 36 15
136 18 32 41 15
141 18 32 42 15
137 18 31 42 15
141 19 34 42 14
140 19 35 41 14
140 19 36 43 14
146 17 32 41 14
145 15 28 29 13
143 15 25 27 13
144 15 24 27 13
135 11 24 19 13
137 10 24 18 13
132 10 24 18 12
129 9 20 17 12
132 9 18 19 12
124 9 14 18 12
128 9 15 18 12
125 7 19 15 12
124 7 29 34 12
129 8 30 34 12
123 8 32 35 12
128 8 38 36 12
128 9 38 36 12
126 9 39 35 11
131 9 39 37 11
128 11 39 36 11
127 11 39 36 11
129 11 35 36 11
128 10 22 18 11
133 8 22 18 11
131 8 22 16 10
134 8 15 23 10
137 8 15 30 10
133 7 21 46 10
137 7 20 47 10
136 8 22 47 10
136 11 23 48 10
140 11 23 48 10
136 11 23 50 9
140 11 24 50 9
141 12 25 50 9
135 11 25 45 9
151 24 24 34 9
148 24 19 20 9
149 23 19 20 9
152 23 17 20 8
147 23 17 19 8
150 23 16 18 8
147 25 15 14 8
148 25 14 13 8
153 25 14 13 8
151 26 11 12 7
145 12 13 11 7
144 11 14 13 7
143 11 19 17 7
149 12 24 17 7
145 12 24 24 7
147 12 24 24 7
147 10 24 26 7
141 10 23 28 6
143 9 23 28 6
138 8 23 27 6
142 9 22 27 6
144 9 21 23 6
141 11 22 23 6
141 9 28 24 6
139 8 41 18 6
137 8 42 18 6
141 7 42 16 6
136 7 49 14 5
140 7 64 18 5
140 7 75 25 5
132 6 77 24 5
137 6 78 26 5
130 4 77 24 5
137 6 73 22 6
138 8 68 20 6
134 8 64 21 6
137 8 65 27 6
135 8 79 29 6
134 8 81 27 6
137 8 73 20 6
132 8 75 29 6
134 8 75 28 7
132 8 72 30 7
126 6 75 30 7
130 4 66 29 8
128 5 63 31 8
133 5 81 28 9
133 5 71 25 9
127 6 75 33 10
137 9 90 33 11
135 9 111 30 11
135 9 135 30 12
137 9 146 28 13
133 9 157 37 13
138 9 204 44 14
134 9 236 46 15
132 9 248 47 15
139 9 251 46 16
137 9 247 40 17
136 6 245 42 18
134 6 260 43 19
134 8 255 44 20
138 8 234 40 21
135 11 236 37 22
136 12 216 31 23
137 11 186 26 24
135 12 158 21 25
137 13 163 30 26
131 12 163 30 27
133 12 167 31 28
136 12 130 27 29
132 7 99 26 30
136 6 100 28 31
135 18 120 28 33
133 18 136 27 34
136 17 145 28 35
127 25 191 34 36
140 30 172 26 37
140 30 174 26 38
133 32 233 20 39
141 34 348 60 41
140 34 399 64 42
144 34 400 68 43
142 27 438 83 44
137 24 441 84 45
143 24 436 99 46
143 24 404 103 48
133 26 404 101 49
141 35 415 98 50
140 34 421 97 51
137 30 345 88 53
131 27 258 89 54
123 30 257 86 55
130 32 200 71 56
133 33 197 73 57
127 34 212 60 59
127 35 198 48 60
125 33 211 57 61
121 21 241 57 62
114 18 230 56 63
118 14 245 53 64
120 14 286 65 65
117 13 281 66 66
120 12 302 71 67
114 12 304 65 68
129 21 291 77 69
128 30 279 89 70
119 38 279 83 71
131 39 252 83 72
131 38 247 83 73
131 39 238 86 74
132 40 172 79 75
129 42 174 75 76
144 49 170 63 77
144 50 158 65 78
134 47 169 56 78
144 40 171 33 79
144 26 177 31 80
136 20 179 29 81
137 21 178 29 82
129 21 191 27 83
149 32 275 28 83
150 42 276 49 84
143 37 253 49 85
151 35 290 50 86
148 35 323 49 87
148 36 336 65 87
147 35 326 68 88
144 36 320 68 89
156 38 347 68 90
156 38 343 67 90
151 33 342 75 91
153 11 341 62 92
152 17 343 69 92
152 15 325 66 93
148 21 317 87 94
150 25 303 82 95
155 25 307 81 95
153 26 297 85 96
148 30 269 98 97
146 31 273 100 97
147 30 220 96 98
150 30 215 96 99
137 24 205 88 99
140 22 217 89 100
140 21 157 69 101
141 20 231 73 102
150 25 221 68 102
147 25 239 67 103
154 25 232 51 104
155 26 229 48 104
156 32 214 48 105
156 32 221 50 105
154 37 280 61 106
161 37 265 61 107
169 46 416 124 107
164 47 377 119 108
172 52 433 146 109
172 51 443 145 109
157 50 447 146 110
165 55 448 145 110
154 54 454 145 111
171 59 448 145 111
171 59 450 153 112
161 57 449 152 112
164 52 344 112 113
158 52 326 115 113
143 44 292 96 114
145 40 294 116 114
155 36 291 121 115
158 44 322 156 115
156 43 310 158 115
143 40 312 164 116
150 38 255 153 116
144 40 289 168 117
143 42 276 162 117
143 48 349 196 118
146 51 339 193 118
152 49 316 174 118
138 39 336 176 119
128 47 338 178 119
134 52 353 180 120
126 53 355 182 120
129 53 365 185 120
128 59 362 186 121
136 64 426 218 121
140 61 389 189 122
128 58 405 196 122
128 65 440 207 122
127 66 457 216 123
139 62 448 200 123
141 58 435 194 123
142 57 435 190 123
147 57 425 186 123
146 49 371 161 124
139 43 323 131 124
144 40 303 124 124
145 36 287 119 124
152 26 204 96 124
153 19 150 56 124
147 20 130 57 124
151 20 128 57 124
147 19 120 50 124
149 18 122 56 124
155 14 124 62 123
151 14 126 62 123
158 14 100 54 123
156 14 97 47 123
154 14 66 42 123
162 13 62 42 123
156 12 82 39 123
159 13 88 41 122
160 13 89 41 122
157 15 96 44 122
164 11 89 32 122
160 18 90 37 122
158 18 93 38 121
166 18 81 37 121
158 18 80 37 121
160 18 82 38 120
157 19 103 44 120
158 19 100 40 120
160 18 102 43 119
150 15 86 31 119
159 15 83 31 119
159 12 94 38 118
152 13 95 39 118
152 13 94 39 117
150 11 87 38 117
152 11 88 38 116
155 13 66 44 116
147 14 65 44 115
151 14 50 40 115
149 12 52 43 115
140 12 64 45 114
142 14 92 46 113
139 13 91 43 113
145 13 96 49 112
144 13 97 50 112
142 13 99 50 111
143 11 98 40 111
139 12 96 43 110
139 10 101 43 109
139 10 108 50 109
135 16 112 53 108
147 16 90 45 107
144 16 87 47 107
139 16 84 46 106
139 17 84 48 106
134 17 78 48 105
141 19 77 49 104
138 19 71 44 104
139 20 85 49 103
145 20 80 46 102
139 22 82 46 102
138 24 82 48 101
136 25 82 47 100
135 28 117 62 99
137 31 123 64 99
128 31 137 70 98
130 31 165 75 97
130 32 175 77 97
132 32 171 76 96
133 32 169 71 95
132 29 166 68 94
133 26 166 65 94
137 24 166 65 93
134 21 131 47 92
141 16 120 44 91
140 19 119 44 91
145 23 108 40 90
146 19 84 30 89
135 14 86 33 88
140 13 85 33 88
140 13 81 34 87
135 14 71 31 86
134 19 81 36 85
130 19 111 41 84
133 19 122 41 84
134 17 119 37 83
126 13 103 29 82
134 11 98 25 81
133 12 99 25 80
134 11 98 24 80
137 11 95 24 79
134 12 95 23 78
143 11 116 23 77
140 12 115 18 76
143 12 95 17 76
145 12 103 17 75
135 9 132 17 74
141 9 148 21 73
142 10 152 22 73
140 14 153 21 72
140 21 153 27 71
136 22 148 27 70
139 22 130 26 69
140 21 96 26 68
131 23 97 31 67
146 29 131 40 67
145 28 117 39 66
142 27 95 35 65
144 27 84 33 64
140 27 80 33 63
146 25 82 32 62
140 22 81 29 61
140 22 81 29 60
143 20 90 30 60
141 21 110 34 59
133 17 87 25 58
133 19 80 25 57
132 21 81 26 56
137 21 82 26 55
132 22 82 26 54
140 19 79 22 54
142 18 72 18 53
133 17 74 16 52
138 11 79 16 51
135 11 68 15 51
140 13 77 19 50
141 17 83 21 49
132 15 82 19 49
134 15 81 19 48
134 15 86 19 47
134 19 85 21 47
138 19 90 21 46
133 19 92 21 45
139 19 87 23 45
140 19 89 22 44
136 19 84 22 44
141 16 80 21 43
138 16 80 21 43
141 15 79 20 42
142 17 69 19 42
129 12 59 18 41
136 12 63 18 41
134 11 57 16 40
132 10 45 12 40
135 10 40 12 39
127 13 36 13 39
130 12 33 12 38
129 12 33 13 38
127 12 28 12 37
131 8 19 11 37
129 8 18 11 36
133 12 14 12 36
134 12 7 12 36
131 12 10 12 35
137 12 9 12 35
135 10 9 10 34
136 12 10 11 34
140 10 10 9 33
137 11 10 10 33
144 11 11 11 33
142 11 11 11 32
137 10 12 10 32
142 9 11 10 31
135 10 10 9 31
138 9 10 9 30
138 9 9 7 30
137 7 8 7 30
142 7 8 8 29
136 7 7 8 29
137 5 6 6 29
138 6 6 6 28
133 8 11 12 28
138 8 12 12 28
135 10 12 13 27
134 9 15 13 27
138 10 15 13 27
133 9 15 13 26
137 9 17 14 26
135 9 18 16 26
133 10 18 20 26
138 9 23 24 25
135 8 20 21 25
136 8 20 22 25
136 4 19 21 24
134 5 18 21 24
140 6 18 19 24
135 6 18 20 24
137 6 16 20 23
138 7 16 21 23
133 6 14 15 23
137 6 8 13 23
135 7 9 13 22
133 8 10 14 22
136 8 11 16 22
131 8 11 16 22
137 9 11 16 21
136 9 11 16 21
131 11 14 18 21
137 10 14 17 20
132 10 15 16 20
136 10 15 15 20
137 9 14 16 19
135 6 13 15 19
140 7 15 15 19
136 9 17 18 18
132 8 17 20 18
135 8 18 20 18
129 10 15 19 17
133 9 16 18 17
131 10 16 20 17
129 11 17 24 17
132 11 22 24 16
125 11 23 24 16
126 11 22 24 16
125 10 22 22 15
122 10 23 21 15
127 10 23 21 15
125 7 23 21 15
127 7 24 24 14
128 6 24 22 14
123 5 23 22 14
128 5 21 19 13
126 6 20 19 13
130 5 20 19 13
133 5 19 26 12
129 7 16 26 12
135 7 16 25 12
133 8 16 25 12
132 8 17 24 11
137 8 17 23 11
132 7 18 20 11
135 7 16 20 10
135 7 16 20 10
130 7 17 18 10
134 7 17 13 10
130 9 16 15 9
129 8 19 21 9
131 9 20 21 9
128 9 19 21 9
130 8 24 24 8
128 10 30 26 8
129 10 31 29 8
132 12 32 29 8
129 12 31 29 8
133 13 31 29 8
132 11 30 28 7
131 11 28 24 7
137 11 27 25 7
134 18 29 26 7
140 18 24 26 7
140 17 19 24 7
137 17 20 24 7
145 18 20 23 7
142 18 20 23 6
142 18 20 24 6
144 19 20 24 6
139 19 20 24 6
143 19 23 22 6
138 12 18 15 6
140 14 20 14 6
144 14 20 16 6
140 14 19 14 6
142 13 24 17 6
140 12 38 19 6
140 12 41 18 6
146 12 52 19 6
141 12 58 21 6
144 12 68 20 6
145 11 67 20 6
137 6 67 20 6
142 6 74 20 6
137 5 74 20 6
135 6 72 16 6
139 6 61 13 6
133 4 59 13 6
135 3 70 13 6
133 2 81 19 7
132 3 113 22 7
136 3 133 23 7
130 7 136 23 8
132 7 132 23 8
132 7 131 24 8
129 7 131 24 9
132 7 132 22 9
127 7 119 20 10
125 9 96 20 10
127 9 100 17 11
126 9 92 14 11
124 8 79 14 12
123 8 74 24 13
123 8 83 26 13
127 9 98 27 14
124 11 99 31 14
127 12 95 34 15
127 13 102 34 16
133 13 102 34 16
136 13 106 41 17
127 12 86 41 18
137 12 89 41 19
137 12 92 40 19
134 11 115 41 20
138 12 140 41 21
133 12 153 40 22
140 12 154 41 23
140 11 159 41 24
134 8 159 42 25
139 8 142 28 25
137 8 141 27 26
139 8 175 38 27
141 7 191 38 28
134 9 182 37 29
140 9 164 31 30
140 9 156 34 31
134 10 158 34 32
142 12 155 40 33
138 12 154 41 34
144 16 156 42 36
143 21 164 51 37
131 28 138 49 38
141 30 128 48 39
141 28 132 53 40
140 28 153 60 41
142 30 130 54 42
137 33 207 72 44
144 33 270 86 45
141 33 270 85 46
135 34 284 87 47
138 31 284 85 48
136 27 286 85 49
135 22 304 88 51
133 20 299 84 52
136 25 305 74 53
135 26 343 74 54
129 26 309 69 55
128 26 259 61 57
129 28 279 62 58
127 29 266 56 59
130 29 256 56 60
129 27 255 55 61
122 25 229 52 63
123 25 228 53 64
116 24 231 59 65
121 23 194 64 66
121 23 192 61 67
116 22 217 55 68
122 21 262 78 69
117 20 267 78 70
120 20 271 75 71
121 22 299 83 73
130 28 306 84 74
132 28 311 83 75
121 22 302 80 76
125 18 309 74 77
128 18 310 74 78
133 23 304 79 79
130 40 265 70 80
126 42 243 70 81
132 45 254 76 82
134 44 273 80 83
120 39 263 79 83
136 38 286 89 84
136 37 319 97 85
139 34 299 91 86
142 28 291 84 87
132 29 298 95 88
145 20 293 92 89
145 21 307 92 90
140 19 296 88 91
146 24 308 94 91
144 24 300 86 92
141 24 323 102 93
144 24 307 100 94
139 24 320 102 95
144 26 338 103 96
142 26 336 99 96
145 26 340 99 97
155 30 327 103 98
155 32 342 111 99
153 32 271 89 99
153 35 263 90 100
159 42 237 83 101
159 42 205 80 101
157 43 189 79 102
156 41 126 73 103
161 42 154 74 103
152 43 156 75 104
159 43 173 73 104
153 42 151 89 105
166 41 145 89 105
167 38 150 85 106
147 22 153 71 106
158 17 150 72 107
155 19 167 75 107
166 22 172 89 108
164 32 231 120 108
159 37 271 123 109
159 37 262 126 109
158 38 272 118 110
145 40 314 130 110
148 45 371 145 110
147 47 370 145 111
141 50 398 164 111
141 50 388 164 112
131 50 388 160 112
137 46 365 138 113
134 40 328 131 113
122 38 331 133 114
124 38 375 135 114
121 39 366 128 115
127 30 303 101 115
127 25 301 101 116
130 25 277 76 116
135 29 288 89 116
125 28 295 89 117
132 28 317 107 117
133 28 308 107 118
136 32 386 118 118
144 32 319 119 119
142 38 341 116 119
147 36 333 117 119
149 36 333 118 120
141 37 347 120 120
148 33 352 130 120
148 34 343 125 121
150 34 310 113 121
153 35 311 114 121
151 30 194 99 122
153 32 200 89 122
150 26 165 89 122
149 26 169 89 122
153 26 176 93 123
149 26 159 96 123
151 25 125 65 123
152 22 116 66 123
145 22 115 66 123
152 13 104 60 123
145 18 103 59 123
146 24 110 60 123
146 31 121 64 123
140 31 108 55 123
149 34 117 57 123
148 34 114 68 123
144 36 120 76 123
150 36 131 79 123
146 35 127 77 123
149 35 126 79 122
149 35 123 80 122
152 26 103 74 122
159 24 105 74 122
152 16 94 71 121
152 16 94 71 121
154 15 83 52 121
156 17 77 35 121
154 23 101 50 120
150 22 100 50 120
145 26 124 75 120
150 27 127 81 119
144 27 133 84 119
152 27 137 84 118
151 27 147 84 118
145 27 155 85 117
149 27 164 91 117
143 28 170 94 116
150 22 132 71 116
150 22 127 72 115
152 18 121 59 115
153 14 120 52 114
144 10 115 44 114
146 10 113 45 113
146 12 96 42 112
143 13 71 44 112
148 13 66 38 111
143 16 59 37 110
139 18 63 46 109
139 20 68 49 109
130 20 90 52 108
148 20 99 52 107
149 23 116 53 106
142 23 127 52 105
145 16 111 42 104
141 22 122 50 104
143 23 126 57 103
143 24 132 63 102
139 28 143 66 101
150 28 149 66 100
149 28 142 60 99
144 30 135 62 99
143 26 113 57 98
137 21 48 35 97
150 23 35 32 96
148 22 35 32 95
145 22 85 45 94
147 22 116 49 93
148 21 143 55 92
146 22 153 60 91
141 24 147 61 90
135 23 150 61 89
143 25 154 66 88
144 27 151 64 87
135 28 150 65 86
137 28 150 66 85
139 31 154 68 84
141 32 150 69 83
134 30 116 59 82
139 26 69 41 81
141 16 49 30 80
132 10 70 29 79
138 14 145 64 78
135 19 189 88 77
141 22 202 94 76
143 23 200 93 75
133 21 195 90 75
139 20 186 89 74
139 20 181 88 73
137 18 169 88 72
142 11 151 78 71
140 10 155 79 70
137 11 132 68 70
142 20 84 44 69
142 25 25 30 68
143 24 24 30 67
139 26 22 31 66
135 31 17 31 65
139 32 67 31 65
133 32 110 28 64
141 32 124 27 63
139 32 123 28 62
141 32 126 29 61
139 26 120 28 60
127 17 117 23 59
136 16 116 22 59
136 15 115 22 58
139 12 112 19 57
141 11 107 19 56
135 11 79 19 55
130 8 64 24 55
132 8 72 24 54
128 8 92 27 53
138 11 130 34 52
136 11 150 34 52
135 12 148 37 51
135 22 152 42 50
133 23 152 43 50
138 22 152 43 49
137 23 146 43 48
142 26 123 38 48
146 26 102 37 47
138 26 100 36 46
139 25 74 32 46
139 26 38 31 45
133 25 42 27 45
139 9 29 10 44
135 9 29 10 43
128 11 27 10 43
129 12 27 10 42
118 11 27 8 42
119 11 32 8 41
117 13 33 8 41
116 13 33 9 40
121 14 34 9 40
115 15 30 10 39
122 15 29 11 39
121 15 29 10 38
128 15 29 14 38
130 18 30 17 37
129 18 30 17 36
133 18 24 17 36
135 20 27 20 35
131 17 38 19 35
137 18 44 20 34
132 23 45 21 34
130 23 47 21 33
131 23 46 21 33
127 19 46 19 32
135 14 45 15 32
132 15 45 14 31
132 16 46 15 31
134 15 45 12 30
128 16 37 12 30
138 20 27 15 29
138 13 7 11 29
138 14 15 15 29
141 15 15 14 28
134 16 21 18 28
135 16 20 18 27
137 16 20 18 27
134 16 19 18 27
140 16 19 18 26
137 18 21 20 26
135 18 32 21 26
136 19 44 23 26
132 19 43 22 25
141 18 46 22 25
141 20 59 19 25
140 21 69 20 25
144 21 72 19 24
141 21 72 19 24
143 20 72 19 24
143 19 72 18 24
136 17 68 16 24
145 18 54 15 24
143 21 48 14 23
139 18 48 22 23
141 17 41 22 23
135 20 35 23 23
138 20 29 23 23
133 18 25 22 23
136 18 25 22 23
140 19 24 22 23
135 19 21 21 22
134 19 21 22 22
130 16 21 22 22
134 17 14 15 22
137 16 14 18 22
135 16 15 18 22
140 15 15 20 21
141 15 16 19 21
136 15 21 24 21
141 15 22 24 20
136 16 23 27 20
139 15 23 27 20
142 15 23 27 19
139 14 23 27 19
145 15 24 24 19
143 15 24 24 18
140 14 24 23 18
143 14 23 22 18
135 11 22 18 17
139 11 21 18 17
139 11 20 11 17
142 16 22 16 16
142 16 24 22 16
134 14 23 22 16
137 14 23 22 15
138 15 21 22 15
134 15 21 22 15
139 15 25 22 15
137 13 21 17 14
137 16 22 18 14
139 17 22 19 14
129 14 18 18 13
135 12 14 13 13
132 11 15 13 13
129 9 28 15 12
134 10 30 17 12
131 10 31 22 12
135 13 36 38 12
135 13 38 40 11
133 11 37 40 11
142 13 37 43 11
138 13 37 43 11
137 14 37 43 10
138 14 38 43 10
135 14 30 44 10
138 12 28 43 10
134 12 27 38 9
134 11 16 28 9
135 11 13 25 9
128 11 12 23 9
129 10 12 21 8
128 10 10 21 8
133 11 14 28 8
137 10 16 29 8
132 11 25 30 8
131 12 25 36 7
131 11 26 37 7
129 12 27 34 7
136 12 28 35 7
132 13 28 36 7
135 13 28 37 6
138 14 28 38 6
135 17 28 39 6
140 18 26 39 6
137 18 24 41 6
141 19 30 37 5
143 19 31 36 5
135 18 29 36 5
141 19 29 35 5
140 17 28 34 5
135 13 27 31 4
140 10 27 31 4
134 7 26 22 4
139 12 26 22 4
139 12 21 11 4
133 12 9 12 4
141 13 11 12 4
139 13 19 12 4
137 11 45 13 3
139 11 49 14 3
137 11 53 19 3
140 11 65 19 3
136 9 71 19 3
134 8 71 20 3
137 8 71 25 3
133 8 104 25 3
135 8 134 27 3
134 8 135 28 4
130 8 122 29 4
136 7 131 32 4
131 7 137 30 4
132 6 137 30 4
133 5 136 30 5
128 4 133 30 5
133 4 135 27 5
129 4 121 23 6
129 4 94 18 6
131 3 87 18 7
126 3 89 15 7
129 6 92 16 8
127 6 112 18 9
126 6 111 19 9
131 7 111 20 10
128 11 116 24 11
124 21 129 38 12
123 21 133 38 12
126 21 126 39 13
135 26 98 41 14
132 26 76 40 15
133 26 119 45 16
134 26 164 50 17
127 28 167 49 18
128 29 189 48 19
124 28 210 49 20
136 21 208 46 21
137 18 234 51 22
125 13 244 44 23
130 13 237 44 24
128 14 242 56 25
126 13 245 56 26
131 11 228 56 28
131 11 224 60 29
134 11 208 59 30
134 9 180 51 31
129 11 180 55 32
137 13 154 51 34
136 14 131 56 35
131 13 143 58 36
132 12 163 59 37
127 13 201 74 39
139 14 200 72 40
137 14 199 70 41
137 14 197 69 42
139 14 194 69 44
135 13 265 77 45
134 12 301 81 46
131 11 316 79 48
133 7 357 82 49
141 14 357 77 50
140 16 343 65 51
133 17 346 65 53
130 17 346 64 54
134 17 351 63 55
142 19 394 67 56
138 19 369 59 57
138 21 384 68 59
139 20 411 70 60
135 21 380 62 61
134 18 375 62 62
131 16 373 62 63
133 15 366 62 64
137 14 372 62 65
127 17 359 62 67
129 17 273 55 68
128 16 275 55 69
130 12 304 58 70
133 12 229 57 71
127 12 270 74 72
129 13 319 75 73
129 18 328 79 74
114 35 333 110 75
130 42 327 111 77
129 43 346 122 78
133 49 350 122 79
133 51 349 125 80
127 51 270 108 81
138 57 326 132 82
136 65 300 138 83
134 66 246 137 84
144 67 220 136 85
147 54 203 98 86
131 32 342 140 87
127 30 331 136 88
129 30 335 137 89
136 30 367 141 90
131 19 380 136 91
137 19 349 127 91
139 16 335 120 92
136 17 344 126 93
135 30 381 143 94
133 29 393 144 95
153 34 307 114 96
153 41 321 133 97
141 41 319 132 98
151 44 276 118 99
151 42 366 123 100
139 36 384 130 101
146 36 383 129 102
143 36 368 131 102
149 34 385 134 103
148 33 388 129 104
135 36 408 132 105
145 39 409 128 106
142 37 427 146 106
136 26 440 146 107
138 32 405 138 108
141 33 378 129 109
147 40 373 130 110
146 39 411 137 110
147 40 400 129 111
153 41 394 128 112
145 44 369 129 113
151 42 340 117 113
152 41 329 94 114
156 43 339 116 115
159 42 272 113 115
154 54 320 136 116
153 47 298 133 117
155 46 313 128 117
152 46 303 123 118
161 53 314 144 118
161 51 312 141 118
162 49 305 140 119
164 51 309 149 119
158 48 288 134 119
166 48 295 133 120
161 34 167 107 120
162 33 153 108 120
163 32 142 109 120
157 31 142 106 121
151 27 135 83 121
151 26 155 81 121
145 26 163 80 121
149 23 159 65 121
145 21 152 65 121
142 19 136 59 121
143 19 138 59 121
135 19 170 66 121
142 20 169 66 121
139 29 240 93 121
144 34 268 101 121
145 35 257 100 121
136 36 272 113 121
138 35 285 116 121
136 36 283 115 121
130 36 283 115 121
139 36 280 115 120
138 32 240 98 120
133 29 239 98 120
132 24 190 77 120
123 18 151 61 119
130 20 135 57 119
126 19 105 43 119
129 17 100 39 118
130 21 102 59 118
134 21 121 61 118
141 23 155 65 117
135 23 169 66 117
142 23 171 67 116
145 23 174 67 116
143 23 171 66 115
148 17 157 56 115
147 17 156 56 115
148 16 133 50 114
156 21 176 65 114
153 24 171 63 113
147 20 147 65 113
147 21 137 71 112
138 22 138 73 112
147 22 151 76 111
145 21 152 76 110
150 21 155 78 110
151 22 159 78 109
148 25 169 81 109
149 20 135 57 108
143 15 124 54 107
145 15 147 55 107
151 15 144 49 106
151 14 151 52 105
156 14 136 47 105
154 14 137 47 104
151 15 144 52 103
153 19 161 62 102
148 20 156 69 102
143 21 151 73 101
147 24 155 78 100
148 24 132 73 99
153 23 122 69 99
148 25 118 67 98
153 29 115 68 97
153 31 105 67 96
140 30 103 59 96
144 22 59 34 95
142 25 69 37 94
153 31 87 45 93
152 33 83 40 93
141 32 82 40 92
145 34 84 40 91
145 40 107 50 90
124 45 109 61 89
138 42 105 59 88
141 31 118 54 87
139 29 152 66 86
138 31 164 74 86
127 36 159 73 85
139 38 161 72 84
134 37 165 72 83
135 37 164 73 82
140 37 142 68 81
144 30 126 50 81
133 25 130 46 80
125 20 121 45 79
129 17 82 34 78
134 17 46 20 77
135 17 31 18 76
135 17 38 18 75
135 18 35 19 75
129 15 59 14 74
132 15 118 20 73
124 22 132 20 72
140 23 130 20 71
140 25 129 24 70
132 26 128 27 69
142 28 128 32 68
140 28 127 35 67
149 27 120 35 66
149 24 118 33 66
142 26 119 30 65
147 25 77 19 64
147 25 32 18 63
145 25 38 17 62
149 24 63 18 62
147 22 57 21 61
147 18 81 20 60
144 19 136 19 59
134 20 153 25 58
137 24 155 29 57
136 24 153 29 57
139 23 151 29 56
141 24 151 32 55
133 22 140 30 54
139 21 110 23 54
139 23 102 24 53
138 22 108 26 52
142 19 77 27 52
134 19 50 26 51
139 19 39 22 50
137 19 39 21 50
144 23 40 24 49
148 22 39 19 49
147 24 36 23 48
149 24 29 23 47
150 25 23 22 47
143 25 24 22 46
147 26 21 22 45
147 27 26 26 45
149 27 31 27 44
155 32 44 33 43
145 31 47 32 43
144 31 44 32 42
136 28 42 28 41
135 28 41 27 41
135 20 39 18 40
131 21 39 20 39
133 23 37 20 38
130 23 40 21 38
131 24 42 23 37
128 18 32 17 36
119 13 26 16 36
132 12 28 18 35
133 11 28 17 35
133 15 27 14 34
138 15 19 11 33
135 15 15 12 33
136 16 15 12 32
138 16 16 13 32
133 16 16 13 31
136 16 16 13 31
134 15 14 14 30
126 11 8 10 30
126 15 12 15 29
119 11 11 14 29
122 11 10 14 29
122 11 10 14 28
123 12 10 14 28
126 12 17 17 27
122 16 17 20 27
128 18 17 25 27
129 19 17 30 26
125 19 18 30 26
132 15 18 29 26
130 14 18 27 25
129 11 17 25 25
131 10 17 26 25
128 13 21 22 25
132 13 20 22 24
130 12 23 23 24
128 11 23 22 24
134 11 23 19 24
128 10 23 20 23
132 10 22 17 23
132 10 22 24 23
133 15 24 29 23
137 15 25 28 22
131 12 23 29 22
144 17 27 30 22
147 17 23 29 22
144 17 23 29 21
151 18 21 29 21
150 19 22 29 20
147 19 22 30 20
150 18 20 24 20
143 19 21 18 19
151 20 17 17 19
148 21 20 14 19
138 22 21 19 18
144 23 25 20 18
142 25 31 26 18
137 25 29 24 18
135 19 25 23 17
135 16 27 23 17
144 24 31 33 17
143 28 32 40 17
136 32 40 42 17
140 33 41 42 16
138 30 38 41 16
135 29 33 40 16
126 23 20 33 16
126 23 24 35 16
130 26 24 34 16
126 26 26 35 15
122 25 27 31 15
118 23 28 25 15
121 22 20 22 15
123 20 19 22 15
117 19 18 22 15
122 17 16 20 14
123 16 16 20 14
126 16 16 20 14
127 14 16 20 14
122 14 14 20 14
134 17 15 25 14
136 16 15 23 14
131 15 19 28 14
133 15 18 28 14
132 15 18 26 14
134 15 18 25 14
135 15 21 27 14
130 14 20 26 14
136 13 20 26 14
135 14 20 26 14
124 6 15 18 14
127 7 16 16 14
122 8 14 9 14
123 8 14 10 14
124 8 14 9 14
119 8 14 9 14
126 8 7 5 14
122 8 17 7 14
123 8 35 8 14
124 8 51 8 14
121 9 51 12 14
126 8 77 18 14
124 8 92 18 14
127 8 92 23 14
131 8 102 24 14
127 8 105 24 14
131 8 105 24 14
131 10 124 24 14
130 11 134 26 14
136 10 137 28 14
132 10 131 28 14
136 10 137 28 14
137 10 153 32 14
133 9 167 29 14
139 9 160 30 15
135 9 158 30 15
135 8 160 30 15
138 7 148 31 15
133 5 136 35 16
138 7 110 33 16
136 6 114 33 17
135 6 119 31 17
139 6 102 26 17
133 7 91 29 18
139 10 112 31 18
139 10 114 31 19
133 11 120 37 20
137 11 121 36 20
135 11 124 32 21
135 9 124 33 21
136 9 116 32 22
130 9 119 34 23
135 9 119 36 23
133 10 121 36 24
130 9 123 40 25
134 9 125 40 25
132 8 140 37 26
134 8 141 36 27
132 9 139 35 28
130 8 142 34 29
132 9 150 37 29
128 11 160 37 30
132 11 162 35 31
133 9 163 38 32
131 9 149 35 33
136 10 149 34 34
131 10 131 31 35
134 9 134 33 36
134 8 161 39 37
129 8 158 39 38
136 9 149 31 40
134 11 175 47 41
130 12 187 51 42
134 13 180 48 43
127 13 188 47 44
127 10 202 49 45
127 10 202 50 46
126 10 202 51 47
127 13 180 44 48
121 12 174 42 49
121 13 175 56 51
122 18 132 50 52
121 18 131 54 53
124 17 141 58 54
119 17 130 57 55
124 18 108 55 56
127 17 104 55 57
122 17 104 54 58
126 13 106 52 59
125 15 111 67 60
122 15 111 60 61
123 15 129 63 62
114 17 137 60 63
121 20 152 58 64
122 22 152 59 65
123 23 174 59 66
130 25 220 67 67
127 34 219 67 68
128 38 222 67 69
129 34 232 42 70
125 36 234 40 71
142 46 221 38 72
139 47 208 47 73
137 46 184 45 74
139 46 183 44 75
133 47 175 47 75
129 48 136 43 76
123 39 186 42 77
127 28 186 37 78
129 26 247 54 79
126 26 285 55 80
129 20 295 59 81
129 21 325 70 81
132 23 317 73 82
133 22 344 80 83
127 25 345 79 84
134 23 331 75 85
134 28 290 76 86
128 33 291 80 86
136 34 274 74 87
135 35 305 93 88
134 42 307 96 89
134 40 341 111 90
127 40 344 112 91
138 42 361 124 91
137 45 370 135 92
133 45 390 140 93
138 41 389 139 94
135 39 375 142 94
143 47 411 151 95
143 51 362 138 96
133 44 347 131 97
143 44 320 116 98
143 47 313 118 99
140 45 290 111 99
139 35 299 100 100
136 51 331 133 101
150 58 323 132 102
154 62 325 127 103
146 58 338 120 103
148 53 315 114 104
142 62 358 133 105
146 62 349 132 106
141 62 344 128 106
146 56 321 111 107
155 73 456 163 108
160 81 462 147 109
155 78 490 165 109
152 80 566 196 110
151 79 533 193 111
156 79 525 194 112
155 74 512 188 112
150 75 514 199 113
154 71 513 200 114
146 68 521 200 114
146 56 413 159 115
136 36 331 139 116
137 33 323 133 116
138 31 254 98 117
131 37 251 99 118
140 40 251 94 118
144 51 332 114 119
148 50 330 96 119
147 51 336 97 120
140 53 317 104 120
133 54 333 112 120
133 53 308 100 121
128 53 320 110 121
139 48 271 107 122
137 48 246 107 122
133 40 240 106 122
133 42 266 96 123
123 45 316 111 123
137 50 315 110 123
139 57 324 114 124
152 62 324 106 124
156 61 312 107 124
149 65 318 120 124
151 62 316 116 124
150 60 305 116 124
150 59 306 114 124
157 59 276 112 124
157 64 250 111 124
151 61 230 97 124
149 39 194 82 124
144 38 169 79 124
152 42 175 86 124
152 39 161 71 124
153 36 100 70 124
157 39 149 75 124
150 36 148 74 124
153 36 153 71 124
148 30 135 61 124
148 26 135 61 123
152 20 137 56 123
145 19 147 57 123
145 19 159 61 123
145 19 153 62 123
144 25 170 72 123
149 19 133 63 122
143 19 128 62 122
148 20 125 62 122
149 19 120 61 122
147 19 124 61 121
157 18 118 49 121
156 13 106 44 121
155 13 94 40 120
158 13 98 39 120
151 9 69 18 120
158 12 69 23 119
157 17 79 23 119
148 16 78 39 119
156 16 73 36 118
150 17 71 44 118
148 13 78 47 117
148 15 71 48 117
145 14 90 52 116
147 14 87 52 116
141 14 93 56 115
135 16 94 56 115
139 16 96 58 114
140 15 99 44 114
144 19 95 51 113
143 21 95 52 113
138 21 91 53 112
142 19 85 51 112
137 21 90 50 111
141 21 90 50 111
141 24 100 59 110
139 24 99 56 110
144 24 90 58 109
139 23 102 62 109
138 21 102 61 108
138 20 109 59 107
140 21 121 64 107
141 24 120 64 106
136 21 98 60 106
140 19 98 58 105
146 19 91 54 104
146 19 95 55 104
148 19 96 54 103
145 18 79 48 102
140 17 107 49 102
142 20 101 50 101
132 19 82 38 100
143 14 85 33 100
142 12 123 51 99
137 12 126 51 98
140 12 130 50 98
132 12 128 49 97
132 12 126 46 96
133 11 127 45 95
134 10 95 42 95
140 9 87 40 94
138 10 97 40 93
133 12 101 40 93
137 11 69 17 92
132 11 64 16 91
135 10 47 14 91
134 11 26 15 90
134 11 28 14 89
138 11 29 16 88
132 10 26 15 88
133 11 44 15 87
133 15 66 14 86
137 19 70 17 85
138 18 73 19 84
134 18 76 22 84
132 22 76 31 83
135 24 69 32 82
136 25 71 32 81
139 25 79 35 81
135 25 78 35 80
137 25 82 36 79
138 22 73 36 79
126 13 69 34 78
135 12 64 33 78
134 12 54 34 77
138 10 29 25 76
141 10 31 19 75
133 7 29 20 75
139 8 26 24 74
139 10 35 25 73
136 10 67 25 72
144 10 96 25 72
142 10 99 25 71
144 12 96 24 70
145 13 94 18 69
140 13 96 17 69
144 12 98 19 68
141 12 96 19 67
137 12 96 16 67
142 10 98 14 66
141 10 87 13 66
141 9 50 13 65
138 8 32 14 64
136 7 35 14 64
140 5 39 14 63
136 5 63 23 62
140 7 75 25 62
142 7 79 26 61
144 11 90 33 60
147 12 90 32 59
139 12 118 36 59
142 12 131 37 58
145 12 124 36 57
141 12 120 36 56
142 14 120 37 56
139 14 117 36 55
139 13 114 35 54
143 13 111 35 54
134 10 99 28 53
137 9 101 28 52
136 9 79 23 52
133 10 53 22 51
136 12 51 22 50
131 11 50 22 50
136 9 50 19 49
137 9 45 15 48
133 9 38 14 48
137 9 45 12 47
131 10 65 12 46
134 10 93 18 46
136 11 92 18 45
130 11 95 18 45
135 9 92 14 44
133 9 88 14 44
130 9 88 15 43
134 5 89 15 42
128 5 88 15 42
131 6 90 15 41
131 7 83 15 41
126 10 39 7 40
129 10 26 5 40
125 10 18 6 39
128 10 13 7 39
129 9 11 7 38
126 9 9 7 38
134 8 10 7 37
131 7 10 6 37
132 7 9 7 36
133 10 7 9 36
131 11 9 9 35
138 12 9 8 35
136 12 9 10 34
136 12 8 10 34
141 12 8 10 33
134 12 7 10 33
136 12 7 10 32
135 12 7 10 32
132 11 9 9 31
138 7 9 7 30
133 7 6 7 30
136 6 6 8 30
138 12 9 9 29
133 12 9 8 29
136 12 9 8 28
134 13 9 8 28
133 14 10 8 27
137 14 10 9 27
132 14 8 8 27
135 14 8 13 26
134 13 14 15 26
131 12 14 15 25
135 8 13 15 25
129 9 14 17 25
134 10 15 17 25
134 8 15 21 24
129 6 27 22 24
136 8 28 22 24
132 8 28 22 24
135 8 28 20 24
136 10 25 19 23
132 10 25 21 23
137 13 25 21 23
134 13 26 19 23
132 12 24 19 23
136 12 23 17 23
132 11 13 14 23
134 8 12 14 23
133 7 9 15 22
130 8 8 15 22
135 7 9 13 22
131 10 10 9 22
133 6 9 10 22
133 12 8 8 22
128 14 8 7 21
130 14 8 7 21
126 14 8 7 21
125 14 9 7 21
127 15 9 11 21
125 15 17 14 20
129 15 21 22 20
127 13 21 22 20
126 13 21 22 20
130 10 21 22 20
128 9 26 25 20
133 8 26 26 20
132 8 26 26 20
132 8 26 27 19
136 7 26 23 19
130 6 22 23 19
130 7 15 17 19
131 7 16 16 19
128 7 17 16 19
133 8 17 17 18
129 6 10 10 18
129 6 10 10 18
132 6 10 11 18
127 7 14 10 18
133 7 12 10 17
131 8 13 9 17
132 7 14 9 17
136 7 14 9 17
132 6 13 8 17
135 6 13 8 17
134 10 18 15 17
144 19 23 23 17
149 19 24 23 17
144 19 21 23 17
144 21 22 25 17
145 21 23 25 16
142 21 22 25 16
148 21 22 26 16
145 21 23 26 16
147 21 23 26 16
149 19 21 21 16
134 11 13 14 16
140 12 13 15 16
139 12 13 13 16
137 10 11 11 16
139 9 11 11 16
134 9 12 16 16
137 8 19 20 16
137 8 18 27 16
133 8 18 27 16
138 8 20 27 16
133 8 20 27 16
132 6 19 27 16
133 6 19 26 16
129 6 20 27 16
133 7 20 26 16
130 7 19 22 16
126 7 10 19 16
129 10 10 8 16
124 10 10 5 16
129 10 7 9 16
127 10 7 9 16
126 11 7 12 16
131 11 7 12 16
127 10 9 13 16
133 10 11 14 16
134 10 11 15 16
131 9 12 15 16
134 7 11 15 16
129 8 17 16 16
130 8 17 12 16
133 9 18 13 16
127 7 18 12 16
134 9 18 13 16
131 9 18 13 16
128 9 15 10 16
130 9 15 10 16
126 8 14 10 15
132 9 14 10 15
131 8 9 8 15
126 8 9 8 15
128 7 6 8 15
123 7 7 8 15
124 5 7 7 15
126 5 9 9 15
124 5 10 9 15
129 5 10 9 15
127 7 10 9 15
125 7 12 10 15
126 11 23 12 15
125 11 23 14 15
133 10 21 12 15
130 10 22 12 15
132 11 23 12 15
138 14 24 12 15
133 15 32 12 16
136 15 32 13 16
134 15 33 13 16
133 15 33 13 16
139 12 47 14 16
134 13 56 12 16
135 13 57 12 16
137 14 57 12 16
132 15 52 12 17
134 12 55 13 17
133 13 66 13 17
136 14 70 13 18
137 18 72 14 18
130 19 74 15 18
136 19 62 15 19
137 20 57 18 19
133 19 61 18 19
136 19 60 18 20
135 20 59 23 20
135 19 70 25 21
132 12 75 22 21
128 12 70 22 21
133 12 75 29 22
131 14 89 34 22
133 14 92 34 23
133 13 89 33 23
131 20 85 34 24
131 27 85 38 24
124 30 90 43 25
136 32 88 37 25
135 32 66 30 26
126 31 59 31 26
134 28 79 40 26
133 28 94 42 27
127 25 96 38 27
131 17 149 56 28
127 17 165 56 28
132 17 165 56 29
133 18 175 56 29
129 17 172 57 30
133 17 190 59 30
130 18 199 67 31
125 26 184 60 31
130 27 182 55 32
130 29 183 52 32
136 28 185 43 33
132 28 182 43 34
135 28 192 42 34
134 25 175 33 35
119 18 174 33 36
128 14 165 38 37
128 13 196 47 37
128 11 204 48 38
133 11 195 49 39
125 10 208 58 40
125 7 184 57 40
125 15 177 60 41
120 16 170 58 42
127 15 170 60 43
125 16 167 63 44
127 18 168 64 44
128 18 121 49 45
124 19 107 61 46
124 19 109 60 47
123 19 89 53 48
124 19 93 54 49
129 15 93 49 49
129 14 103 48 50
131 14 115 47 51
131 14 115 42 52
127 13 114 36 53
130 13 118 42 54
127 11 122 26 55
127 17 120 27 55
128 17 115 28 56
123 15 107 27 57
126 15 116 29 58
119 15 105 31 59
124 19 93 37 60
125 18 138 52 61
119 16 139 52 62
127 15 141 48 62
125 14 132 47 63
127 12 155 51 64
131 13 171 52 65
124 16 168 53 66
129 17 187 67 67
128 26 216 79 67
119 24 214 81 68
126 22 196 73 69
124 21 199 73 70
127 24 193 71 71
127 23 210 75 72
122 22 203 68 72
131 28 185 84 73
130 31 209 94 74
128 31 195 84 75
131 23 185 79 75
131 20 211 82 76
138 20 216 81 77
135 26 215 83 78
132 27 215 86 79
136 30 215 81 79
132 35 177 81 80
145 33 304 94 81
145 34 378 93 81
144 34 381 99 82
153 43 438 128 83
152 50 443 134 84
143 49 443 134 84
143 45 449 134 85
140 41 449 130 86
146 41 440 135 86
144 39 448 138 87
130 44 388 138 88
139 47 357 149 88
135 45 357 148 89
137 40 294 124 89
133 30 269 113 90
143 35 290 122 91
144 36 265 111 91
144 45 357 136 92
144 46 361 140 93
149 45 372 136 93
149 44 371 128 94
147 44 414 138 94
142 46 417 139 95
141 46 466 149 96
144 45 489 153 96
131 38 529 157 97
143 31 542 160 97
139 29 536 168 98
140 34 565 170 98
143 34 536 162 99
134 32 545 163 99
141 31 485 145 100
140 32 504 154 100
134 32 469 146 101
137 31 441 142 101
138 36 367 128 101
134 24 294 101 102
134 23 288 101 102
128 26 251 100 103
129 26 251 99 103
129 26 233 99 103
133 28 250 100 104
135 27 211 85 104
132 27 211 85 105
133 27 237 86 105
127 18 221 76 105
130 23 361 117 106
134 25 364 115 106
131 25 450 142 106
132 33 498 160 106
131 33 525 178 107
127 32 531 186 107
132 32 543 198 107
129 33 558 203 108
147 38 556 203 108
149 41 587 208 108
146 37 491 181 109
150 36 492 182 109
147 40 429 171 109
148 35 354 146 109
148 36 347 131 110
147 40 334 121 110
157 40 270 93 110
155 39 355 132 110
148 35 443 141 111
149 38 420 138 111
148 38 455 149 111
150 37 463 151 111
151 32 500 146 112
158 48 511 167 112
163 50 502 175 112
154 48 498 184 112
151 53 501 186 113
151 55 464 159 113
151 51 438 151 113
154 49 432 150 113
147 50 404 142 114
159 50 404 138 114
160 56 363 138 114
155 48 384 135 114
169 46 361 115 115
168 51 446 135 115
174 50 429 127 115
176 49 435 128 115
163 50 369 127 115
169 46 368 129 116
169 47 371 132 116
159 48 370 134 116
165 45 368 133 116
156 42 343 117 116
142 38 358 126 117
143 35 257 100 117
131 32 236 99 117
142 31 227 95 117
140 31 236 91 117
138 30 239 92 117
143 28 258 85 117
136 32 287 93 117
136 33 263 87 117
136 33 261 87 117
139 23 227 69 117
147 23 223 69 117
140 23 223 68 117
140 23 206 68 117
141 21 184 66 117
139 21 196 62 117
147 21 166 61 116
143 14 83 38 116
142 10 65 30 116
146 11 60 29 116
144 16 135 77 116
145 19 145 83 115
143 19 154 86 115
141 19 162 91 115
148 23 165 97 115
144 22 150 95 114
138 24 151 96 114
137 26 154 97 114
140 27 152 95 114
145 26 151 94 113
137 23 129 70 113
147 16 134 57 113
150 15 117 43 112
149 18 136 46 112
149 18 143 42 112
144 19 159 47 111
148 18 162 48 111
150 21 204 83 110
142 20 223 90 110
146 20 223 90 110
146 19 222 91 109
134 15 201 87 109
140 15 199 87 108
137 14 194 87 108
141 15 196 89 107
141 17 182 85 107
138 16 176 82 106
141 11 132 54 106
137 10 82 37 105
138 12 84 45 105
139 13 74 41 104
142 14 128 77 103
146 22 170 97 103
141 25 191 102 102
142 25 180 101 101
145 25 180 103 101
139 25 189 105 100
144 25 187 105 99
142 25 184 104 99
142 23 165 92 98
145 21 167 89 97
137 22 153 74 97
139 15 113 47 96
137 8 57 24 96
131 9 40 25 95
139 10 44 20 94
137 11 57 19 93
137 11 86 31 93
138 11 129 35 92
132 11 138 36 91
140 15 137 38 90
137 17 155 53 89
130 17 155 53 89
133 17 155 55 88
132 17 153 56 87
128 16 142 56 86
126 14 150 59 85
122 14 151 58 85
127 13 125 54 84
127 13 115 52 83
130 11 116 52 82
131 8 102 41 81
131 9 104 41 81
132 11 86 34 80
127 11 70 29 79
135 14 71 30 78
138 14 82 32 77
133 17 115 45 76
138 17 122 46 75
133 17 106 42 74
131 23 127 57 74
131 35 131 64 73
125 36 134 64 72
132 36 136 64 71
131 36 134 64 70
125 35 145 66 70
135 37 147 66 69
137 31 122 48 68
129 25 102 34 67
128 19 108 32 67
123 20 108 26 66
135 19 108 31 65
131 19 125 35 64
132 21 159 38 63
135 22 170 41 62
132 23 171 41 62
134 21 175 38 61
129 17 175 37 60
133 13 175 34 59
136 11 168 33 58
129 10 147 30 58
132 10 148 31 57
131 10 143 30 56
134 11 113 30 56
148 19 99 31 55
142 18 93 29 54
141 17 80 26 53
143 17 81 26 53
140 17 67 23 52
144 17 47 18 51
141 18 47 18 51
145 22 51 20 50
147 22 70 25 49
138 22 69 23 48
139 19 67 22 48
138 18 68 21 47
135 18 59 20 46
138 18 60 20 46
136 18 60 21 45
142 18 62 23 44
141 19 61 25 44
131 16 61 24 43
140 13 44 15 42
136 14 37 15 42
137 13 33 13 41
139 15 31 14 41
137 14 30 12 40
139 14 24 9 39
137 16 25 10 39
132 21 26 11 38
135 20 21 10 37
141 29 30 21 37
143 29 31 20 36
140 26 29 19 36
135 26 28 19 35
140 23 19 18 35
135 23 19 18 34
136 24 21 20 33
137 25 22 20 33
137 23 22 20 32
139 24 24 21 32
127 11 13 10 31
128 10 11 10 31
129 11 10 11 30
121 9 8 9 30
124 9 8 9 29
121 11 10 11 29
123 10 11 10 28
126 10 11 10 28
121 10 14 10 28
131 15 17 11 27
131 16 17 13 27
122 17 19 14 27
127 15 17 17 26
124 15 16 17 26
123 15 15 16 26
124 15 15 16 25
124 18 15 21 25
127 17 14 21 25
123 17 18 26 25
117 17 25 32 24
123 20 29 32 24
130 28 37 43 24
132 28 35 41 24
129 27 35 41 24
131 27 35 41 24
133 27 35 42 23
122 20 33 38 23
125 21 35 37 23
126 19 28 26 23
127 20 27 25 23
125 24 31 28 23
115 18 20 16 22
119 17 21 16 22
120 17 20 17 22
115 17 20 17 22
122 16 18 15 22
121 14 17 16 21
126 14 20 23 21
127 14 27 28 21
122 14 31 28 21
129 10 28 27 21
127 13 28 27 20
129 13 28 28 20
132 13 28 27 20
128 13 28 27 20
129 13 28 27 20
129 14 28 27 19
127 12 24 18 19
132 11 15 13 19
128 11 9 11 19
133 11 12 20 19
135 7 31 31 19
128 6 39 37 18
134 8 38 35 18
132 9 40 36 18
134 8 42 37 18
135 12 44 43 18
126 12 44 46 18
130 12 45 46 18
129 14 45 46 18
127 17 45 43 17
130 17 32 36 17
125 18 25 30 17
125 17 25 30 17
126 18 23 30 17
127 20 22 28 17
132 17 18 21 16
130 19 18 16 16
132 19 15 16 16
136 20 19 17 16
129 18 19 19 16
135 18 21 20 16
134 18 22 22 16
137 18 23 23 16
139 16 23 22 16
130 10 20 19 16
133 12 21 23 15
131 9 22 22 15
130 10 22 22 15
132 7 20 21 15
128 7 19 19 15
128 7 16 18 15
128 8 13 14 15
123 7 12 14 15
126 7 13 14 15
122 7 14 15 15
121 11 10 9 15
123 11 12 9 15
119 12 12 9 15
123 12 12 9 15
122 17 13 10 15
121 17 13 10 15
124 18 31 12 15
119 18 49 11 15
124 17 52 14 15
124 17 64 16 15
126 15 94 16 15
131 15 105 16 15
125 13 107 16 15
129 13 108 18 15
129 9 109 17 15
129 9 109 18 15
134 7 102 17 15
132 7 83 15 15
134 7 71 14 15
136 7 71 17 15
131 7 57 17 15
139 9 69 19 16
138 9 68 21 16
137 9 72 20 16
140 9 81 24 17
133 9 101 27 17
136 7 107 26 18
136 7 108 27 18
135 7 145 36 19
138 7 174 38 19
134 7 174 38 20
133 5 172 38 20
134 5 171 37 21
128 5 170 37 21
133 5 169 35 22
131 5 164 36 23
130 6 155 36 23
133 6 166 41 24
126 6 168 41 25
132 6 142 38 26
130 6 154 41 26
126 6 175 42 27
132 7 185 42 28
130 9 187 44 29
129 9 189 44 29
130 8 186 39 30
129 10 186 39 31
130 10 176 34 32
123 10 145 29 33
126 10 140 30 34
129 10 135 24 35
129 13 116 17 36
129 14 128 14 37
125 12 150 24 38
126 12 150 24 39
127 13 162 31 39
119 11 180 40 40
132 13 183 40 41
131 15 180 41 42
127 15 184 41 43
131 15 187 40 44
126 15 190 45 45
128 15 175 45 46
126 14 145 35 47
127 11 141 35 48
132 9 135 33 49
130 10 124 31 50
124 8 129 40 51
126 7 131 42 52
123 7 126 42 53
125 7 128 42 54
121 7 120 37 55
124 8 123 50 56
126 8 126 51 57
121 8 128 52 57
125 8 137 53 58
124 8 129 51 59
126 12 134 44 60
131 12 131 45 61
126 12 127 45 62
129 13 118 46 63
130 17 124 60 64
137 20 109 53 65
141 20 114 56 65
136 22 110 54 66
136 22 97 50 67
138 23 97 50 68
131 23 147 69 69
136 25 197 80 69
135 27 226 86 70
139 28 239 85 71
143 27 233 74 72
129 24 234 74 73
137 24 232 77 73
137 20 242 79 74
136 21 237 79 75
138 16 264 93 76
133 13 262 90 77
133 11 226 82 77
135 9 219 77 78
129 8 242 86 79
136 10 253 85 80
133 13 258 86 81
133 13 259 84 81
137 13 257 85 82
131 13 260 87 83
137 13 215 67 84
135 13 178 58 84
133 14 168 59 85
136 14 182 58 86
131 15 188 49 86
132 13 212 57 87
131 8 228 68 88
125 9 239 69 89
126 12 227 68 89
122 14 218 70 90
134 22 218 69 91
136 23 308 99 91
132 24 315 101 92
137 25 325 106 93
134 30 299 118 94
130 30 231 112 94
131 34 236 112 95
127 34 236 115 95
138 33 237 112 96
137 32 236 103 97
123 20 288 108 97
125 25 247 103 98
120 25 252 107 99
130 27 245 102 99
130 28 245 96 100
132 29 254 86 101
137 26 274 88 101
134 24 274 88 102
126 22 266 91 102
128 23 267 92 103
127 30 302 122 104
139 31 240 108 105
138 32 277 110 105
131 32 275 110 106
137 28 300 116 106
137 51 347 135 107
137 51 382 146 108
136 56 471 177 108
143 58 472 180 109
143 56 485 178 109
139 59 452 168 110
141 65 486 181 110
143 65 472 180 111
135 64 475 184 112
136 64 446 171 112
126 45 377 143 113
138 45 376 159 113
141 44 273 130 114
135 39 275 127 114
144 35 241 128 115
139 34 238 119 115
132 25 130 92 116
133 23 128 92 116
135 33 195 113 117
141 33 194 114 117
141 34 193 114 117
136 35 179 91 118
140 30 164 84 118
130 30 162 84 118
131 30 168 83 118
133 29 163 83 118
131 29 125 71 119
136 29 134 72 119
129 31 99 59 119
136 32 94 55 119
138 32 99 59 119
133 32 99 55 119
135 31 102 51 119
134 32 124 56 119
135 31 114 57 119
141 30 98 53 119
137 30 133 58 119
144 30 139 59 119
144 22 129 50 119
134 19 129 52 119
138 20 132 49 119
134 14 135 52 119
143 15 134 55 119
147 14 113 52 118
145 15 104 46 118
144 12 101 46 118
141 14 83 47 118
146 15 77 49 118
150 15 77 48 117
144 15 84 46 117
154 14 68 45 117
154 13 64 41 117
145 11 67 36 116
145 14 71 37 116
139 14 73 31 116
146 14 82 31 115
146 13 79 26 115
143 16 109 36 115
149 17 147 39 114
146 17 166 40 114
145 17 165 40 113
147 17 175 42 113
145 18 174 41 112
158 14 170 38 112
156 14 173 43 112
156 14 166 43 111
158 14 152 41 111
145 11 148 35 110
145 9 114 31 110
143 7 56 24 109
142 13 59 37 109
146 13 70 39 108
142 16 71 47 108
135 17 76 46 107
135 21 76 45 106
130 21 84 48 106
137 22 97 48 105
137 22 87 44 105
140 22 84 43 104
143 22 63 42 104
134 19 81 43 103
143 20 85 42 102
139 18 83 32 102
139 16 83 33 101
145 12 96 39 101
145 16 118 46 100
156 12 98 41 99
155 12 104 42 99
150 12 120 43 98
155 15 119 43 98
150 15 118 42 97
152 16 120 43 96
154 21 145 53 96
153 23 171 64 95
152 25 164 61 94
143 20 128 46 94
136 17 139 53 93
141 20 149 57 92
140 24 148 61 92
140 27 154 63 91
139 27 151 62 91
133 27 152 62 90
137 25 131 56 89
132 23 75 39 89
137 18 37 29 88
137 18 46 29 87
135 17 49 26 87
139 17 45 23 86
138 23 42 24 85
137 22 36 21 84
140 22 57 27 83
139 22 65 29 83
136 21 63 29 82
130 19 72 31 81
128 18 72 31 80
131 17 72 31 79
126 15 71 31 79
125 16 76 31 78
121 8 84 30 77
127 5 83 30 76
128 5 67 24 76
123 5 49 18 75
132 5 47 16 74
133 7 71 21 73
134 7 88 25 73
140 12 87 24 72
134 15 89 24 71
134 16 87 25 70
136 16 75 28 70
130 16 75 28 69
137 16 75 27 68
133 19 77 36 67
132 21 75 37 67
136 19 64 36 66
129 19 37 35 65
130 17 41 35 65
129 16 39 35 64
131 14 39 35 63
135 14 42 27 62
127 12 45 24 62
131 10 46 24 61
132 9 50 13 60
130 9 50 12 60
134 9 54 17 59
132 8 62 16 58
137 10 61 15 58
137 10 64 21 57
133 9 81 27 56
137 10 88 29 56
136 9 89 27 55
131 8 89 28 54
134 8 87 29 54
127 8 89 30 53
131 5 87 26 52
130 5 76 25 52
123 7 67 26 51
125 9 81 24 51
120 9 77 18 50
127 10 66 22 49
127 11 81 28 49
119 12 91 30 48
125 12 92 29 48
123 13 91 28 47
120 13 89 26 47
123 13 89 26 46
121 11 88 26 46
128 11 76 23 45
124 12 66 22 45
120 11 68 19 44
130 13 47 17 44
131 13 21 11 43
136 12 16 11 43
135 13 20 14 42
133 13 19 14 42
137 14 18 14 41
133 13 18 14 41
137 13 17 14 40
138 12 16 14 40
132 12 16 14 39
131 10 11 10 39
128 12 11 12 38
122 12 12 13 38
126 9 8 11 37
125 9 7 10 37
132 9 9 11 36
131 9 8 11 36
133 9 8 11 35
137 10 9 11 35
132 10 8 10 34
136 8 8 10 34
136 8 8 10 34
137 9 10 12 33
139 9 9 11 33
135 9 9 11 32
136 9 8 8 32
138 9 8 8 31
128 9 8 8 31
134 10 12 12 30
133 10 12 11 30
131 9 12 12 30
133 10 12 12 29
129 11 11 11 29
134 11 12 12 29
131 8 10 11 28
128 8 10 11 28
131 8 9 10 28
127 8 10 9 27
132 9 9 8 27
133 10 9 8 27
130 10 12 11 26
136 8 11 11 26
131 9 16 16 26
132 9 16 16 26
134 9 16 16 26
130 10 16 16 25
136 10 17 17 25
134 10 14 15 25
130 8 13 13 25
133 8 13 12 25
129 10 13 12 24
135 10 17 19 24
134 10 13 17 24
132 13 14 17 24
139 19 23 32 24
133 22 25 35 23
131 25 25 34 23
131 26 39 44 23
126 28 39 44 23
128 29 41 46 23
123 29 41 45 23
123 29 39 44 22
125 29 39 44 22
119 27 39 44 22
120 23 33 31 22
120 20 32 31 22
124 17 31 29 22
127 16 18 18 22
126 13 20 20 21
133 10 14 14 21
132 9 13 13 21
127 10 14 13 21
134 11 17 19 21
131 12 18 20 21
132 11 21 25 21
133 10 26 28 20
129 10 26 27 20
132 9 25 27 20
127 7 25 29 20
129 8 32 38 20
134 16 33 39 20
131 17 35 49 20
131 18 33 46 19
128 16 33 46 19
130 16 30 40 19
135 17 28 42 19
130 16 28 42 18
135 16 28 43 18
135 17 26 37 18
133 15 19 34 17
133 14 18 34 17
133 21 18 20 17
133 22 23 25 17
135 22 24 26 17
131 22 25 27 16
135 24 24 26 16
132 24 24 24 16
133 25 25 25 16
136 24 25 24 16
129 24 25 24 16
133 22 25 22 15
127 15 22 20 15
131 13 15 15 15
132 12 14 13 15
125 12 14 13 15
130 10 14 12 15
129 10 14 13 15
123 8 13 10 15
128 7 12 10 15
126 6 12 10 15
128 7 13 10 15
129 9 9 8 15
125 9 12 8 14
134 10 12 9 14
131 10 10 10 14
128 10 10 12 14
130 10 10 12 15
128 8 30 13 15
129 9 40 13 15
127 8 48 18 15
128 8 88 24 15
134 8 114 24 15
127 8 117 30 15
131 7 124 31 15
131 10 124 32 15
129 9 147 41 15
133 7 180 49 15
129 7 173 46 15
131 7 159 48 16
134 6 170 50 16
129 6 182 50 16
132 6 182 51 17
130 7 188 46 17
129 7 183 44 18
131 6 184 44 18
123 6 167 40 19
129 6 106 25 19
129 8 58 21 20
130 9 75 24 20
132 10 87 24 21
127 11 81 22 21
130 11 77 22 22
131 12 64 22 23
126 11 64 20 23
132 8 69 23 24
130 7 76 23 25
132 8 80 23 25
134 8 80 25 26
128 8 76 25 27
132 9 73 21 27
130 9 75 21 28
132 11 76 21 29
135 11 75 21 29
127 12 73 20 30
131 12 69 19 31
131 10 55 18 32
127 9 58 23 32
129 9 106 34 33
124 10 105 32 34
129 12 111 35 35
129 13 117 47 36
121 12 114 49 36
127 10 119 49 37
127 9 156 55 38
127 9 181 59 39
128 8 181 59 40
125 8 196 61 41
131 8 204 54 41
130 10 205 55 42
129 10 208 56 43
134 10 218 53 44
130 10 218 53 45
135 10 223 54 46
135 8 203 52 47
132 10 173 49 48
138 12 213 74 49
132 14 237 75 50
137 16 230 74 51
137 16 300 95 52
131 15 314 97 53
135 14 305 96 54
133 11 303 93 55
134 11 303 93 56
137 10 304 94 57
132 10 304 93 58
138 11 254 68 59
137 11 176 60 60
132 10 236 72 61
137 10 208 50 62
134 10 177 47 63
137 10 182 45 64
137 10 183 44 65
132 9 196 61 66
137 10 192 58 67
135 12 190 57 68
135 12 184 57 69
136 13 192 59 70
130 12 181 66 71
137 11 213 70 72
135 11 317 92 73
133 11 317 92 74
138 13 343 96 75
131 13 340 85 76
134 13 347 86 77
132 12 355 89 78
131 12 359 88 79
139 17 342 85 80
139 17 342 82 81
138 17 323 80 81
138 17 210 46 82
137 16 203 48 83
151 18 226 57 84
152 26 221 58 85
150 26 221 72 86
154 26 223 71 86
149 26 213 71 87
152 21 213 67 88
146 21 234 83 89
147 26 227 83 89
156 27 211 81 90
155 30 213 81 91
144 29 193 77 92
140 25 206 88 92
145 27 202 84 93
143 23 218 96 94
137 20 231 97 95
137 14 255 98 95
139 13 250 91 96
135 22 249 94 97
135 23 246 105 97
130 22 247 105 98
140 26 219 96 99
140 25 218 91 100
133 21 216 88 100
144 24 189 87 101
144 24 195 98 102
145 25 240 132 102
149 24 249 133 103
144 20 250 132 104
153 19 252 125 104
150 20 300 134 105
145 19 300 133 106
149 19 301 133 106
147 19 301 128 107
149 16 311 127 108
150 19 309 121 108
146 18 296 94 109
158 21 286 88 109
156 22 278 89 110
152 22 282 86 110
154 19 225 67 111
147 27 245 72 112
154 27 233 69 112
149 25 214 63 112
148 26 272 91 113
151 34 252 74 113
145 35 234 81 114
146 37 250 87 114
145 42 252 87 115
138 42 246 87 115
141 46 245 94 115
140 43 233 92 116
143 43 235 93 116
143 43 219 92 116
131 44 176 68 116
141 39 155 68 117
139 39 161 66 117
129 35 139 53 117
132 22 135 48 117
132 20 139 47 117
139 17 139 47 117
137 15 141 46 117
133 16 129 51 117
139 16 134 58 117
138 18 125 63 117
136 19 129 65 117
138 16 109 53 117
138 16 121 64 117
146 20 146 71 117
142 20 140 67 116
144 20 152 67 116
146 20 146 62 116
142 20 146 61 116
146 19 149 57 116
143 19 147 52 115
146 16 141 47 115
150 13 136 45 115
142 13 130 36 115
141 9 108 33 115
141 4 112 34 114
136 5 103 30 114
139 7 113 41 114
135 10 140 49 113
142 13 141 51 113
143 14 142 51 113
138 19 169 72 112
139 22 176 80 112
138 25 200 96 112
140 26 212 102 111
142 28 216 110 111
139 27 206 111 110
149 31 224 118 110
147 32 212 115 110
141 30 206 113 109
145 30 206 113 109
142 29 181 101 108
147 26 166 89 108
147 24 148 79 107
145 21 126 70 107
149 15 98 45 106
142 15 98 44 105
132 12 65 25 105
133 11 65 25 104
131 12 79 39 104
135 13 86 43 103
129 10 76 38 102
130 10 81 39 102
132 7 80 41 101
127 8 84 42 100
133 8 80 41 100
132 8 90 43 99
139 10 89 42 98
144 10 86 42 98
135 10 82 35 97
143 11 88 31 96
143 12 84 30 96
136 12 89 35 95
138 13 95 35 94
131 13 88 29 93
138 12 92 31 92
138 15 89 41 91
134 18 104 60 91
141 20 105 61 90
140 25 103 59 89
131 22 72 51 88
132 18 45 48 88
131 16 56 52 87
133 16 71 54 86
132 15 89 57 85
126 21 103 62 85
137 26 103 60 84
139 31 87 39 83
134 32 86 33 82
133 27 77 19 81
138 24 70 22 81
143 21 67 22 80
136 17 77 23 79
140 14 91 31 78
141 14 98 42 77
129 16 88 41 76
130 16 98 41 76
124 16 101 43 75
127 16 99 42 74
130 15 105 41 73
122 13 95 34 73
129 14 97 33 72
129 16 102 33 71
125 16 106 33 70
133 17 95 21 70
132 19 96 21 69
130 19 98 26 68
131 13 92 26 67
130 12 95 25 67
134 9 80 25 66
128 8 87 28 65
127 10 95 27 65
131 11 92 26 64
130 12 72 19 63
129 15 67 22 63
124 14 70 23 62
126 14 65 21 61
130 13 65 19 61
127 14 54 20 60
126 17 54 19 60
126 17 49 17 59
129 17 39 17 59
127 18 40 17 58
120 16 40 17 58
124 13 47 9 57
127 16 57 7 57
135 26 57 27 56
134 28 59 30 55
129 30 64 33 55
134 30 73 32 54
135 29 85 32 54
123 25 88 32 53
131 18 82 31 53
131 13 84 29 52
129 17 84 29 52
129 27 80 33 51
113 26 80 29 51
125 27 75 28 51
125 25 63 23 50
122 22 61 24 50
125 22 47 24 49
125 20 32 23 49
128 21 31 22 48
130 21 22 18 48
125 21 23 19 47
128 17 19 15 47
126 17 20 15 46
122 15 25 19 46
125 15 37 19 45
118 15 56 19 45
127 14 58 18 44
125 14 58 18 44
122 12 58 17 43
123 13 58 17 43
121 14 56 16 42
129 15 59 18 42
129 14 58 18 41
128 15 58 16 41
132 15 56 16 40
128 15 35 14 40
130 13 16 12 40
131 13 14 12 39
127 12 13 12 39
135 11 14 12 38
133 10 14 12 38
135 7 12 11 38
136 9 6 12 37
130 8 8 9 37
137 8 8 9 36
136 9 8 9 36
136 10 10 11 36
139 9 10 10 35
133 9 10 10 35
137 9 10 10 35
137 10 11 10 34
134 10 10 9 34
139 9 10 9 33
134 9 10 8 33
133 9 10 9 33
135 8 10 8 33
127 6 9 7 32
132 6 9 7 32
129 6 9 8 32
123 7 8 10 31
125 8 13 13 31
119 8 13 13 31
122 8 13 14 30
121 7 14 13 30
123 12 14 13 30
127 12 13 13 30
121 14 19 18 30
123 14 20 19 29
123 14 21 19 29
121 15 22 19 29
125 14 19 19 29
122 14 19 19 28
119 13 19 18 28
121 13 19 18 28
116 12 19 20 28
119 12 19 19 27
117 11 14 16 27
118 10 13 15 27
122 9 13 15 26
118 8 10 11 26
125 9 8 11 25
125 10 8 11 25
126 11 11 14 25
128 14 14 18 25
121 14 13 16 24
127 14 13 16 24
128 14 15 18 24
123 14 17 26 24
128 14 24 26 23
125 15 27 28 23
126 14 27 28 23
129 10 28 29 23
126 10 29 30 23
132 9 32 32 22
131 9 32 33 22
129 10 32 33 22
133 10 31 32 22
129 9 29 23 21
131 9 22 23 21
131 8 20 20 21
123 9 20 20 21
129 9 21 20 20
125 9 15 15 20
127 10 11 13 20
128 11 11 15 20
124 12 13 14 20
130 13 11 14 19
126 13 13 15 19
130 12 13 17 19
133 12 14 17 19
131 14 17 22 19
132 13 16 21 19
130 13 16 22 18
128 13 16 21 18
133 12 16 20 18
129 10 15 20 18
132 9 14 20 18
132 9 14 23 18
128 7 13 21 18
130 9 13 24 18
124 12 11 26 17
130 13 12 27 17
132 14 15 28 17
130 15 15 28 17
133 15 15 28 17
130 17 15 29 17
134 21 15 30 17
137 21 15 26 17
130 20 16 27 17
137 19 15 25 16
136 15 16 17 16
131 9 13 12 16
137 9 12 10 16
133 10 13 10 16
139 10 19 13 16
139 10 19 13 16
132 5 20 11 16
136 5 19 10 16
133 9 19 9 16
132 9 18 9 16
135 11 15 8 16
131 11 22 8 16
129 9 30 8 16
126 8 35 8 16
122 9 34 7 16
124 8 36 7 16
120 8 37 7 16
122 8 61 14 16
122 7 83 15 16
123 7 91 15 16
125 4 90 18 16
119 4 91 19 16
123 4 86 19 17
124 4 84 22 17
121 4 74 21 17
124 5 93 23 17
121 4 131 30 17
125 4 132 26 18
127 6 120 29 18
122 8 113 29 18
125 8 115 30 19
124 9 116 30 19
127 9 132 33 19
130 9 131 31 20
124 8 131 33 20
128 6 153 40 21
127 6 134 37 21
123 6 128 38 22
126 8 131 36 22
121 7 131 36 23
126 8 131 34 24
127 7 130 34 24
120 6 117 31 25
127 6 112 29 26
125 6 114 31 26
128 7 90 23 27
131 7 94 25 28
127 7 92 25 28
131 7 89 25 29
130 7 93 29 30
129 6 93 30 30
134 7 99 31 31
130 7 94 30 32
131 8 109 46 33
131 10 96 41 33
127 8 95 40 34
132 8 95 42 35
128 8 112 42 36
131 8 112 47 37
133 8 134 51 38
129 9 185 53 39
129 8 190 53 39
125 6 191 54 40
132 8 173 42 41
135 8 171 43 42
131 9 173 42 43
132 10 176 44 44
131 10 156 45 45
132 11 152 42 46
135 12 147 36 47
130 11 115 40 48
139 12 133 42 49
139 12 134 43 50
129 8 156 45 51
136 6 170 45 52
131 6 218 70 53
133 9 232 70 54
135 8 230 71 54
135 9 248 78 55
140 9 255 81 56
136 7 253 79 57
135 7 235 78 58
140 11 236 75 59
133 12 221 72 60
133 13 206 71 61
134 13 211 64 62
130 11 211 64 63
135 12 219 65 64
124 12 333 111 65
121 12 335 111 66
121 12 354 116 67
112 11 371 121 68
113 12 370 121 69
112 12 374 121 70
114 12 392 127 71
114 12 370 121 72
110 14 363 127 73
111 13 364 126 74
109 17 237 76 75
114 19 218 77 76
120 19 205 75 77
118 24 185 75 78
130 31 184 76 79
130 35 179 79 80
124 34 117 66 81
128 35 120 67 82
125 35 150 58 83
125 35 141 57 83
126 33 136 49 84
126 30 160 45 85
123 26 172 45 86
119 28 286 61 87
112 27 286 61 88
118 25 371 95 89
125 29 385 96 89
128 28 384 100 90
126 33 368 97 91
134 40 395 115 92
134 39 395 116 93
128 44 396 122 94
137 37 393 122 94
138 37 313 115 95
136 38 323 124 96
145 40 274 110 97
138 43 243 115 97
137 42 240 116 98
138 43 241 119 99
131 41 239 122 100
149 54 254 127 100
143 52 254 121 101
147 61 255 122 102
151 67 246 121 103
151 70 245 112 103
146 66 180 72 104
141 62 293 104 105
144 63 303 103 106
151 57 297 104 107
148 56 275 89 107
145 60 276 90 108
145 58 268 90 109
134 56 278 99 109
144 54 270 107 110
137 48 247 104 110
148 45 246 105 111
152 51 196 93 111
152 51 181 95 112
151 51 172 94 112
148 53 175 96 112
144 48 173 85 113
147 53 213 85 113
143 53 213 82 113
145 51 214 78 114
146 50 215 84 114
145 48 199 77 114
144 46 193 75 114
135 47 257 106 115
141 48 258 106 115
142 45 254 105 115
137 47 239 94 115
140 38 189 85 116
139 28 179 89 116
134 35 201 92 116
134 39 201 93 116
121 38 203 93 116
124 37 209 94 116
124 33 132 50 116
123 32 136 55 116
128 32 140 55 116
125 26 140 52 117
129 25 134 52 117
129 25 126 45 117
126 21 92 37 116
132 20 91 44 116
128 24 115 51 116
137 23 103 48 116
139 24 107 52 116
134 22 96 46 116
137 22 108 50 116
134 22 106 48 116
135 22 113 52 115
137 22 107 50 115
131 22 109 51 115
139 20 112 47 115
139 15 99 44 114
139 13 100 42 114
141 13 96 40 114
135 9 96 40 114
141 10 73 35 113
141 11 72 37 113
138 13 72 38 113
143 15 82 45 112
141 15 83 45 112
144 16 73 43 111
145 16 68 42 111
137 15 71 44 111
145 15 65 43 110
142 16 91 46 110
146 16 93 53 109
151 17 113 53 109
146 21 147 64 108
151 19 136 55 108
150 20 149 61 107
150 19 158 62 107
155 18 160 64 106
150 18 160 63 106
151 19 161 64 105
151 17 145 62 105
141 18 147 57 104
146 19 135 55 104
145 13 76 30 103
140 10 51 26 102
144 17 75 41 102
134 17 79 46 101
140 22 98 55 101
138 26 114 65 100
139 26 126 67 99
142 27 123 68 99
135 27 120 70 98
144 27 134 74 97
143 27 135 73 97
144 26 135 74 96
143 21 105 59 95
138 21 114 62 95
142 19 118 60 94
142 16 112 48 93
135 18 88 44 93
145 17 92 43 92
145 18 95 42 91
133 15 101 44 91
135 15 104 52 90
135 17 115 66 89
142 17 115 66 88
140 14 108 63 88
136 10 90 58 87
144 17 66 61 86
147 32 81 71 85
136 42 95 78 85
134 45 108 81 84
141 44 101 78 83
143 42 99 70 83
130 36 73 41 82
140 32 54 28 81
139 25 52 30 81
132 18 33 25 80
134 17 31 25 79
128 16 48 28 78
136 10 47 26 78
136 19 70 37 77
127 21 90 49 76
132 22 92 50 75
131 20 87 45 75
124 18 82 44 74
130 18 85 45 73
127 18 82 44 73
125 19 80 42 72
124 15 83 42 71
128 11 87 37 71
133 11 94 35 70
128 11 78 24 69
130 12 67 20 69
133 19 86 19 68
126 18 102 17 67
129 18 102 16 67
125 17 110 17 66
127 14 111 16 65
130 15 116 17 65
125 16 128 18 64
127 16 119 16 63
126 17 109 16 62
123 17 112 15 62
127 8 110 17 61
125 13 107 20 61
136 13 105 19 60
136 14 93 21 59
130 14 100 22 59
134 14 110 26 58
128 22 93 31 57
139 24 72 31 57
139 24 74 26 56
133 24 86 22 55
136 23 89 24 55
132 23 91 25 54
122 20 94 22 53
123 22 94 23 53
123 22 86 26 52
129 28 64 30 51
130 29 33 27 51
116 27 35 22 50
125 26 31 22 50
126 23 24 20 49
131 22 31 21 48
130 21 36 22 48
129 22 35 23 47
134 21 33 23 46
131 23 42 24 46
136 23 57 24 45
138 21 57 24 44
135 22 57 24 44
135 18 59 21 43
131 16 68 20 42
129 16 66 18 42
131 16 57 17 41
127 15 49 16 41
131 15 52 17 40
129 16 57 17 39
123 13 50 12 39
130 18 53 15 38
130 16 55 14 38
130 16 54 13 37
130 16 35 11 37
129 16 17 10 36
133 15 16 11 36
132 21 22 17 35
135 21 23 17 35
138 22 23 17 34
129 21 23 16 34
130 19 21 15 33
125 18 18 14 33
130 16 13 14 32
131 15 12 14 32
126 14 12 17 31
129 15 12 17 31
126 12 11 16 31
125 13 11 17 30
130 16 11 18 30
128 15 12 24 29
128 15 12 24 29
128 17 15 24 29
121 18 17 24 28
127 17 18 25 28
122 16 17 24 28
125 16 24 26 27
128 18 25 25 27
120 18 25 26 27
124 14 24 25 26
121 15 23 18 26
118 15 25 19 26
121 15 24 19 26
117 14 22 19 25
120 13 21 18 25
119 14 21 19 25
113 14 14 14 25
118 11 12 13 24
114 12 14 14 24
114 13 14 14 24
114 13 14 15 24
120 14 16 15 23
126 16 16 17 23
124 17 16 17 23
121 19 16 17 23
125 18 16 16 22
123 18 16 16 22
128 21 17 17 22
127 22 17 18 22
132 26 23 21 22
137 26 26 25 22
127 23 27 22 22
129 23 27 22 22
129 23 35 24 22
129 23 35 26 22
133 23 35 25 21
128 23 35 25 21
127 19 36 30 21
128 14 36 30 21
122 9 31 28 21
125 6 30 24 20
125 13 26 25 20
132 17 27 25 20
133 17 18 20 19
130 17 19 19 19
134 16 17 19 19
133 16 13 18 18
134 17 14 13 18
135 22 17 15 18
129 22 17 15 17
132 22 17 15 17
131 19 16 14 17
120 15 16 18 17
125 15 16 20 16
122 15 16 20 16
120 14 16 29 16
120 16 15 30 16
115 16 15 30 16
124 11 11 27 15
122 11 12 27 15
123 11 12 27 15
127 12 13 26 15
128 15 14 19 15
133 15 14 19 15
131 14 12 19 14
134 13 13 9 14
137 13 13 8 14
132 11 12 8 14
133 11 14 8 14
135 15 21 17 14
136 20 27 19 13
137 22 35 22 13
129 18 35 20 13
133 19 34 19 13
133 19 35 21 13
125 18 31 18 13
133 14 24 17 13
132 14 17 15 13
133 17 26 18 13
136 17 31 17 13
126 16 33 16 13
133 15 48 17 13
132 15 67 19 13
128 14 68 19 13
134 7 61 14 13
131 8 65 16 13
132 9 67 16 14
133 9 65 16 14
128 5 65 17 14
134 5 65 17 14
131 5 65 18 14
131 6 61 17 15
133 6 49 16 15
128 6 46 16 15
132 6 53 16 16
130 5 60 15 16
126 4 85 19 17
131 4 116 23 17
128 4 121 22 17
128 4 117 22 18
127 4 136 29 19
125 3 146 28 19
128 3 149 33 20
122 7 149 34 20
125 7 149 37 21
127 8 157 37 21
122 7 173 41 22
125 8 145 36 22
122 7 113 36 23
123 13 122 41 24
124 16 122 42 24
117 17 122 43 25
124 17 147 48 26
123 19 192 55 26
119 19 215 52 27
126 19 206 50 28
125 17 176 32 28
123 12 190 36 29
122 8 214 40 30
121 8 221 41 31
129 12 222 41 31
128 14 222 41 32
127 17 213 40 33
130 19 172 30 34
129 22 153 27 34
131 21 153 24 35
126 18 179 26 36
131 16 207 33 37
133 14 201 33 38
124 8 218 39 39
129 8 242 45 39
128 9 246 44 40
129 10 248 43 41
133 9 248 47 42
126 7 237 47 43
128 7 239 49 44
129 6 219 48 45
125 6 161 45 46
130 4 140 46 47
128 5 133 43 48
128 5 125 37 49
130 5 119 39 50
126 6 113 43 51
131 10 142 49 52
130 15 170 67 53
128 16 169 67 54
131 16 171 69 55
126 18 164 68 56
129 19 162 70 57
128 20 163 75 58
127 20 165 74 59
131 21 166 74 60
124 22 196 87 61
126 21 169 82 62
126 20 125 72 63
124 21 204 104 64
127 21 221 109 65
124 19 225 108 65
127 19 225 107 66
130 18 246 108 67
123 20 261 112 68
130 21 260 113 69
128 20 283 110 70
128 21 274 106 71
132 19 294 113 72
127 16 281 95 73
130 15 267 84 74
130 29 261 97 75
125 32 260 102 76
129 32 241 99 77
125 36 228 95 78
127 36 231 93 78
128 35 174 82 79
127 35 193 89 80
131 34 185 84 81
129 33 183 69 82
131 33 200 76 82
132 25 205 69 83
129 21 211 71 84
129 22 223 74 85
128 13 214 74 85
125 13 214 81 86
128 14 202 80 87
119 15 173 65 88
128 22 240 89 88
127 23 232 87 89
123 22 224 86 90
131 22 214 89 90
127 22 219 87 91
135 27 218 88 92
135 26 228 90 92
136 26 223 84 93
140 28 219 83 94
135 27 225 89 94
131 25 158 70 95
135 23 170 84 96
133 23 159 74 96
133 23 177 75 97
132 23 173 84 98
130 19 168 82 98
136 20 164 81 99
130 20 148 83 99
131 22 208 112 100
132 24 232 112 101
132 23 236 113 101
131 23 231 106 102
127 30 241 106 102
131 32 284 121 103
137 32 283 112 103
137 47 364 140 104
137 53 400 156 105
133 57 403 155 105
136 53 372 130 106
141 52 334 122 106
136 50 337 129 107
143 54 374 147 107
142 56 386 148 108
142 53 327 129 109
142 53 356 136 109
134 44 283 110 110
139 35 262 117 110
140 22 263 113 111
139 23 266 116 111
140 30 285 122 112
134 39 292 121 112
136 37 272 102 113
137 30 254 99 113
128 30 258 103 114
134 30 219 91 114
133 31 229 95 115
123 32 210 91 115
124 31 156 82 115
116 31 158 86 116
122 30 162 87 116
122 23 168 95 117
113 18 166 95 117
121 23 182 98 117
117 24 169 90 118
114 17 121 77 118
117 17 131 75 118
132 30 123 86 118
139 32 166 90 119
135 33 156 84 119
134 33 202 96 119
139 33 202 94 119
137 37 215 104 119
144 36 205 104 120
144 37 205 103 120
144 37 229 111 120
145 38 225 111 120
130 26 227 93 120
137 28 228 95 120
136 26 228 94 120
139 24 177 73 120
143 20 174 72 120
140 17 168 65 120
138 17 162 64 119
139 18 165 63 119
136 15 126 47 119
140 14 128 48 119
136 10 130 47 119
136 6 65 34 119
139 7 62 31 118
132 9 98 37 118
139 11 104 40 118
137 11 104 40 118
144 13 103 42 118
152 12 96 39 117
149 13 88 34 117
150 13 86 36 117
151 13 77 35 116
148 14 77 35 116
152 12 77 35 116
147 12 54 32 115
148 12 71 36 115
149 12 66 28 115
135 9 70 27 114
137 9 68 24 114
133 10 67 29 114
140 10 67 28 113
143 12 71 32 113
137 11 73 34 112
140 12 77 35 112
139 12 78 36 111
136 10 60 31 111
143 10 55 31 110
139 12 57 34 110
139 14 71 37 109
140 17 82 41 109
140 20 87 47 108
145 17 82 43 108
141 17 81 43 107
141 16 77 41 107
145 15 74 38 106
139 14 56 30 105
140 16 64 33 105
137 16 68 34 104
140 16 74 38 104
142 16 68 39 103
132 13 83 33 102
137 13 125 45 102
136 21 143 60 101
128 26 144 60 101
134 26 152 61 100
131 26 151 61 99
136 28 152 62 99
136 33 153 64 98
129 38 154 72 97
137 40 161 73 97
135 41 155 73 96
131 41 111 67 96
133 36 58 48 95
135 28 59 44 94
139 25 57 45 93
136 26 58 45 93
133 27 63 46 92
137 25 92 47 91
133 20 98 33 91
135 13 91 37 90
132 9 93 39 89
134 11 91 41 88
137 12 94 40 88
130 18 94 42 87
138 18 93 43 86
139 18 97 47 85
141 22 101 48 85
143 27 98 55 84
141 30 76 55 83
146 32 73 50 83
148 33 105 59 82
140 32 107 56 81
145 31 137 62 81
145 27 172 66 80
140 28 182 67 79
144 26 182 66 78
136 26 184 66 78
138 24 179 63 77
138 22 177 62 76
130 19 177 61 75
135 17 150 50 75
132 17 147 53 74
140 19 147 53 73
141 20 114 45 73
132 12 75 35 72
134 18 110 47 71
131 22 136 57 70
137 24 141 60 70
137 30 145 59 69
131 30 149 60 68
134 29 153 60 67
134 28 163 58 67
126 25 157 51 66
128 20 135 40 65
124 19 137 36 65
127 19 137 33 64
128 18 121 24 63
127 17 117 21 63
139 11 110 21 62
136 13 96 23 61
131 18 101 30 61
132 18 88 29 60
126 18 62 26 59
133 19 61 24 59
129 20 57 25 58
131 20 51 25 58
132 19 51 25 57
123 18 56 26 56
121 18 53 26 56
119 17 55 25 55
125 10 54 17 54
131 12 44 16 54
128 12 35 15 53
128 11 44 19 53
128 9 54 22 52
123 9 56 22 52
129 8 55 21 51
126 8 50 17 50
125 8 49 17 50
126 7 56 18 49
122 7 47 16 49
118 9 50 24 48
114 9 74 26 48
118 8 81 26 47
121 7 77 23 47
115 6 81 23 46
122 9 82 23 46
121 13 89 28 45
127 16 91 29 45
133 16 80 25 44
127 17 77 29 44
137 18 83 28 43
137 20 75 28 43
131 20 68 27 42
135 20 67 27 42
131 23 62 28 41
128 22 59 27 41
131 17 49 17 40
126 19 41 17 40
130 18 25 16 39
129 20 26 15 39
126 19 20 13 38
129 19 16 12 38
124 22 16 14 38
134 23 16 15 37
134 18 15 12 37
132 18 14 11 36
139 18 14 14 36
133 18 10 14 35
133 18 12 13 35
134 14 13 14 34
130 16 13 14 34
138 18 14 16 33
135 16 14 15 33
130 15 14 16 32
132 13 14 15 32
129 15 13 15 32
128 11 8 9 31
125 7 5 6 31
123 7 4 6 30
126 7 4 6 30
121 7 4 6 29
122 7 3 6 29
122 7 4 6 29
120 8 5 8 28
126 7 6 9 28
122 7 7 10 27
124 7 12 14 27
126 8 15 15 27
120 8 16 15 26
129 12 18 18 26
128 17 32 31 26
126 18 32 34 26
128 19 32 35 25
125 19 32 34 25
129 17 31 33 25
126 14 30 31 25
126 14 30 32 24
129 14 26 30 24
126 13 27 29 24
126 14 26 29 23
126 9 14 21 23
128 12 17 18 23
131 11 16 18 22
129 12 16 17 22
130 12 14 16 22
132 13 15 17 21
128 13 14 16 21
132 13 15 17 21
129 13 14 17 20
129 13 14 17 20
131 13 14 17 20
122 9 15 17 20
130 11 20 28 19
128 11 35 35 19
129 18 34 38 19
131 20 35 44 19
126 21 35 44 19
133 21 35 43 18
133 22 35 45 18
128 21 35 45 18
134 22 36 45 18
132 20 34 41 17
133 16 30 24 17
135 15 16 22 17
128 13 20 23 17
131 14 22 18 16
129 15 22 18 16
127 15 22 20 16
132 15 21 19 16
128 15 21 17 15
129 16 18 19 15
129 16 21 28 15
129 21 21 30 15
131 21 22 31 15
126 19 20 27 15
133 17 18 24 14
134 14 18 25 14
130 14 19 25 14
136 14 22 25 14
135 13 20 25 14
135 13 20 25 13
137 13 20 19 13
129 9 19 17 13
135 10 20 14 13
133 10 21 14 13
128 15 21 14 12
132 14 21 12 12
128 15 20 9 12
125 15 18 10 12
123 14 16 9 12
122 12 9 8 11
126 11 7 7 11
121 12 10 7 11
122 13 10 7 11
124 13 10 5 11
126 13 13 7 11
128 13 14 8 11
125 14 15 10 11
129 12 13 10 11
133 12 14 11 11
128 12 16 12 11
135 12 16 14 11
133 11 18 14 11
135 11 18 15 11
139 11 18 15 11
132 7 20 15 11
136 7 21 14 11
135 6 22 13 11
134 9 31 16 11
138 8 28 15 11
135 8 33 15 11
133 8 61 15 12
134 10 82 15 12
126 10 108 16 12
131 9 114 16 12
128 8 113 16 13
128 9 113 17 13
132 7 118 17 13
125 7 122 15 14
127 7 141 17 14
126 7 168 18 15
124 8 164 17 15
128 6 153 24 16
126 5 126 23 16
125 5 101 23 16
125 3 87 26 17
122 3 108 28 17
126 3 180 48 18
121 8 204 50 18
129 13 193 47 19
130 13 182 47 19
124 13 181 47 20
127 15 181 46 20
124 19 189 54 21
132 26 195 60 22
133 29 188 57 22
128 29 208 58 23
134 29 179 45 23
134 27 168 44 24
121 22 169 44 25
129 18 161 44 26
128 15 161 42 26
131 15 160 38 27
131 15 159 36 28
125 13 146 33 29
134 11 172 37 30
130 10 197 40 30
130 11 190 42 31
133 11 191 40 32
132 13 191 37 33
133 12 202 37 34
128 12 202 47 35
130 13 257 67 36
133 15 279 70 37
127 16 276 70 38
136 19 265 67 39
135 19 211 56 40
127 14 214 65 41
131 15 232 71 42
127 15 230 70 43
130 14 211 76 44
130 14 217 75 45
125 14 175 66 46
126 14 148 64 47
123 14 166 64 48
122 11 167 67 49
124 10 181 70 50
123 10 213 68 51
125 10 207 67 52
124 11 212 67 53
124 11 217 66 54
127 10 217 71 55
123 12 225 71 56
130 12 212 70 57
130 12 195 69 58
120 12 199 68 59
127 12 194 65 60
122 12 151 61 61
124 11 140 60 62
125 10 144 60 63
118 10 130 51 64
125 10 138 51 65
123 6 145 60 66
122 6 144 62 67
127 6 142 63 68
124 5 141 62 69
126 5 136 60 70
124 6 123 56 71
131 19 112 58 72
134 19 123 56 73
129 21 109 56 74
131 21 214 61 75
130 23 226 53 76
121 23 239 63 77
124 24 243 62 78
120 30 248 68 79
122 30 250 72 80
124 32 252 74 80
117 30 252 71 81
120 30 244 73 82
120 31 251 70 83
116 32 219 77 84
125 38 235 90 85
133 49 295 106 86
128 50 293 106 87
127 49 299 108 88
124 49 300 106 89
131 42 322 106 89
120 37 320 98 90
134 30 300 95 91
136 31 259 91 92
135 30 262 90 93
136 30 253 84 94
129 16 190 66 94
141 23 232 104 95
141 37 218 108 96
137 37 216 104 97
139 36 182 94 97
139 35 181 94 98
133 35 176 93 99
133 41 203 106 100
129 44 201 118 101
131 44 217 124 101
128 44 236 133 102
127 43 226 119 103
132 35 243 117 104
129 36 252 118 104
130 36 284 132 105
130 37 297 148 106
120 36 390 170 107
129 30 379 162 107
126 19 375 154 108
130 29 401 174 109
131 28 384 160 109
128 28 394 169 110
141 28 404 168 110
139 30 398 169 111
142 26 423 159 111
144 26 417 149 112
138 31 466 155 112
143 41 633 174 113
143 43 632 169 113
143 37 591 132 114
146 46 577 134 114
137 50 589 138 115
140 53 612 148 115
140 57 631 151 116
131 57 580 145 116
143 57 587 148 116
144 53 534 122 117
144 38 256 87 117
148 27 175 85 117
140 37 221 98 117
152 38 242 104 118
151 38 255 103 118
147 36 270 97 118
155 29 245 90 118
153 29 241 90 118
148 29 218 87 118
148 20 116 54 118
144 20 139 57 118
146 20 156 62 118
145 18 203 67 117
146 18 200 61 117
147 18 212 67 117
137 20 219 74 117
140 21 225 75 117
137 22 231 78 117
136 19 234 74 117
139 19 236 74 116
137 20 234 75 116
137 20 233 77 116
135 20 194 69 116
129 18 186 68 115
134 25 202 86 115
131 22 166 78 115
128 20 154 77 115
131 20 156 76 114
130 19 145 71 114
136 20 144 75 114
129 19 145 76 113
132 19 160 78 113
134 18 158 74 113
128 18 157 74 112
139 12 129 54 112
136 12 119 53 111
143 12 131 55 111
146 13 141 59 111
142 12 141 58 110
143 10 148 63 110
141 10 152 62 109
139 9 142 56 109
142 12 163 68 108
140 14 172 73 108
135 16 205 76 107
136 16 228 78 106
137 17 227 78 106
138 17 232 79 105
134 17 232 80 105
137 17 227 73 104
139 17 223 70 104
138 17 217 71 103
145 12 170 53 102
142 13 172 51 102
144 13 158 50 101
147 14 116 43 101
136 10 114 44 100
140 11 93 38 99
139 15 93 42 99
139 17 82 46 98
145 17 77 47 97
140 17 69 43 97
140 18 102 50 96
142 17 109 50 95
134 17 97 44 94
142 15 86 38 94
140 17 81 31 93
137 18 82 31 92
140 17 81 30 91
134 16 88 28 91
139 15 99 30 90
136 16 111 37 89
140 16 88 29 89
143 17 90 29 88
141 18 83 31 87
140 18 102 35 86
141 14 102 36 85
143 14 144 52 85
147 17 181 62 84
142 16 179 62 83
145 18 200 68 82
145 19 199 69 82
133 20 199 69 81
137 20 198 69 80
136 20 199 68 79
138 22 182 65 79
139 22 188 65 78
133 20 171 54 77
135 17 124 36 77
134 18 126 37 76
125 15 98 31 75
130 14 93 24 75
126 12 100 23 74
130 14 93 23 73
130 14 97 21 72
124 12 95 19 72
133 11 96 27 71
131 13 90 27 70
126 13 108 29 69
128 13 123 32 69
122 20 125 34 68
133 21 119 34 67
132 23 116 33 67
127 21 124 33 66
130 20 123 34 65
129 21 123 35 65
131 22 114 25 64
128 20 115 26 64
127 22 107 29 63
133 22 76 25 62
132 19 70 26 62
130 18 90 29 61
129 15 93 29 60
131 15 87 31 60
135 15 84 31 59
128 14 89 29 58
124 15 89 30 58
127 18 94 32 57
131 15 100 25 56
134 15 99 25 56
132 17 101 31 55
127 20 103 34 54
133 20 104 36 54
129 19 105 36 53
129 20 104 37 53
128 19 100 36 52
130 17 97 35 51
137 14 92 28 51
129 14 63 27 50
128 16 36 30 50
128 16 36 29 49
127 14 31 25 48
131 14 40 21 48
125 16 53 26 47
131 17 73 26 46
134 17 81 26 46
129 15 81 26 45
131 15 81 26 45
129 17 81 26 44
127 17 81 26 43
132 15 80 21 43
130 14 76 18 42
130 13 58 14 41
129 14 56 12 41
128 14 43 12 40
132 12 32 11 40
126 12 31 11 39
126 13 31 13 38
128 13 33 17 38
133 14 35 19 37
136 12 32 18 37
131 13 32 19 36
136 13 26 17 36
139 13 20 17 35
130 10 12 10 35
135 10 12 8 34
134 9 13 7 34
134 13 14 12 33
139 13 13 11 33
131 12 7 10 32
135 13 8 10 32
135 13 11 11 31
127 12 11 11 31
134 13 12 12 31
132 13 12 11 30
131 13 12 12 30
133 12 11 12 29
128 12 12 12 29
128 11 12 19 29
125 9 11 18 28
125 10 12 18 28
129 11 12 18 28
129 12 13 19 28
130 11 12 20 27
129 11 12 20 27
126 11 12 18 27
131 11 13 17 27
127 12 12 17 26
129 9 9 11 26
130 9 8 11 26
127 9 7 10 26
130 8 7 10 26
125 8 11 18 26
127 8 11 16 25
129 8 12 17 25
127 10 16 23 25
130 9 20 29 25
127 10 29 33 25
129 9 29 35 25
