1939 2043 2071 2078 0
2265 2068 2062 2063 0
2024 2064 2046 2059 0
1889 2087 2038 2043 0
2212 2056 2039 2025 0
2110 2044 2055 2072 0
1856 2080 2068 2083 0
2129 2053 2045 2032 0
2201 2065 2048 1995 0
1860 2051 2072 2122 0
2054 2080 2020 2057 0
2235 2057 2024 2105 0
1922 2038 2020 2022 0
1955 2069 2049 2014 0
2238 2066 2061 2037 0
2035 2065 2045 2074 0
1935 2083 2079 2092 0
2205 2075 2066 2087 0
2102 2036 2037 2012 0
1893 2088 2061 2040 0
2133 2065 2032 2056 0
2207 2080 2080 2127 0
1909 2058 2041 2052 0
2025 2061 2055 2042 0
2238 2046 2041 2066 0
1963 2055 2034 2067 0
1926 2032 2035 2022 0
2207 2029 2048 2026 0
2082 2089 2059 2075 0
1879 2047 2003 2038 0
2171 2057 2014 2032 0
2120 2042 2072 2058 0
1883 2049 2007 2028 0
2112 2073 2064 2088 0
2215 2067 2027 2042 0
1906 2044 2026 2037 0
1974 2026 2016 2026 0
2222 2056 2094 2058 0
1993 2031 2003 2013 0
1925 2071 2042 2098 0
2204 2056 2019 2070 0
2073 2081 2062 2063 0
1907 2065 2039 2039 0
2167 2079 2081 2089 0
2164 2064 2047 2089 0
1894 2056 2030 2019 0
2064 2049 2037 2042 0
2218 2062 2056 2058 0
1926 2046 2014 1995 0
1984 2060 2059 2055 0
2206 2047 2031 1994 0
2039 2093 2080 2175 0
1906 2052 2017 2028 0
2214 2063 2061 2085 0
2092 2049 2070 2063 0
1873 2080 2056 2049 0
2131 2076 2077 2049 0
2187 2075 2006 2050 0
1897 2069 2081 2142 0
2047 2063 2018 2067 0
2192 2046 2013 2025 0
1949 2056 2009 2019 0
1942 2032 2050 2054 0
2237 2063 2019 2060 0
2030 2059 2039 2036 0
1900 2051 2049 2047 0
2179 2045 2043 2022 0
2112 2050 2023 2084 0
1883 2067 2021 2013 0
2112 2053 2070 2090 0
2194 2064 2064 2060 0
1890 2053 2056 2033 0
2014 2046 2061 2087 0
2243 2070 2036 2021 0
1970 2063 2049 2061 0
1943 2057 2072 2108 0
2229 2067 2032 2098 0
2059 2079 2048 2076 0
1903 2071 2019 2033 0
2158 2033 2019 1967 0
2143 2075 2109 2188 0
1887 2066 2025 2040 0
2094 2070 2047 2102 0
2226 2077 2030 2030 0
1914 2044 2045 2009 0
1992 2031 2040 2050 0
2233 2058 2044 2050 0
1992 2066 2056 2052 0
1919 2063 2024 1952 0
2276 2117 2092 2111 0
2079 2056 2047 2072 0
1885 2049 2063 2119 0
2139 2056 1941 2011 0
2153 2048 2064 2039 0
1857 2056 2001 1990 0
2084 2076 2033 2048 0
2214 2038 2023 2013 0
1922 2057 2026 2050 0
1941 2030 2022 2037 0
2260 2069 2040 2049 0
2024 2057 2068 2060 0
1920 2065 2031 2019 0
2188 2028 2037 1982 0
2082 2067 2039 2043 0
1892 2091 2009 2006 0
2125 2059 2019 2149 0
2200 2047 2025 2069 0
1898 2053 2040 1999 0
1989 2034 2062 2081 0
2285 2111 2121 2089 0
1944 2047 1987 1995 0
1970 2071 2017 2085 0
2229 2053 2037 2050 0
2036 2059 2032 2055 0
1880 2044 2022 2001 0
2213 2072 2092 2059 0
2125 2058 2012 2058 0
1861 2057 2044 2048 0
2133 2088 2055 2072 0
2188 2055 2027 2045 0
1884 2036 2047 2031 0
2019 2053 2038 1997 0
2244 2070 2020 2028 0
1965 2056 2042 2060 0
1940 2072 2130 2205 0
2216 2063 2023 2031 0
2052 2059 2059 2025 0
1890 2058 2035 2068 0
2168 2048 2008 1982 0
2139 2045 2033 2064 0
1865 2027 2005 2014 0
2108 2081 2049 2103 0
2192 2072 2042 2052 0
1889 2055 2062 2104 0
1992 2040 2055 2048 0
2234 2079 2033 2026 0
1987 2057 2037 2023 0
1912 2061 2048 2102 0
2215 2074 2038 2055 0
2077 2038 2033 2068 0
1897 2080 2063 2059 0
2151 2051 2009 2018 0
2172 2073 2088 2095 0
1898 2064 2022 2006 0
2052 2042 2038 2025 0
2216 2058 2061 2059 0
1936 2068 2084 2095 0
1952 2028 1973 1986 0
2237 2056 2039 2050 0
2019 2069 2047 2048 0
1893 2042 2022 2015 0
2217 2055 2048 2065 0
2099 2067 2019 2063 0
1891 2077 2038 2033 0
2133 2076 2031 2062 0
2183 2047 2049 2023 0
1920 2078 2061 2097 0
2045 2056 2040 2008 0
2252 2093 2070 2144 0
1965 2065 2046 2035 0
1951 2056 2047 2107 0
2207 2043 2024 2023 0
2073 2071 2085 2033 0
1888 2063 2052 2101 0
2176 2053 2031 1997 0
2138 2059 2033 2067 0
1866 2051 2108 2114 0
2089 2041 2026 2013 0
2178 2043 2043 2051 0
1913 2067 2037 2053 0
2011 2070 2047 2048 0
2228 2057 2039 2059 0
1985 2048 2063 2026 0
1924 2048 2023 2078 0
2216 2059 2075 2086 0
2064 2066 2036 2046 0
1895 2056 2037 2045 0
2163 2065 2055 2061 0
2148 2074 2064 2119 0
1874 2056 2041 2088 0
2089 2048 2031 1995 0
2225 2092 2095 2090 0
1924 2056 2019 2055 0
2016 2071 2093 2121 0
2229 2052 2023 2064 0
1999 2064 2053 2043 0
1920 2047 2058 2047 0
2222 2088 2039 2063 0
2095 2071 2047 2054 0
1905 2081 2053 2049 0
2128 2035 2010 2036 0
2143 2042 2041 2030 0
1885 2059 2028 2052 0
2076 2049 2025 2030 0
2221 2064 2067 2035 0
1924 2029 2027 2034 0
1984 2080 2081 2039 0
2248 2099 2039 2046 0
2048 2088 2036 2112 0
1891 2045 2016 2054 0
2196 2048 2043 2052 0
2099 2047 2035 2038 0
1869 2042 2051 2023 0
2112 2045 2045 2067 0
2187 2057 2057 2033 0
1903 2066 2030 2049 0
2026 2034 2043 2007 0
2222 2059 2027 2078 0
1960 2072 2089 2119 0
1971 2083 2035 2073 0
2232 2064 2052 2032 0
2042 2051 2040 2028 0
1886 2059 2053 2064 0
2196 2063 2055 2073 0
2139 2061 2051 2054 0
1877 2063 2055 2047 0
2102 2067 2047 2066 0
2184 2032 2017 1949 0
1936 2056 2011 2064 0
2026 2091 2070 2112 0
2263 2089 2091 2117 0
1983 2045 2013 2044 0
1911 2034 2013 2014 0
2202 2056 2029 2017 0
2067 2074 2015 2096 0
1893 2058 2045 2025 0
2144 2057 2017 2102 0
2160 2063 2044 2088 0
1875 2051 2040 2046 0
2058 2037 2024 2011 0
2222 2089 2048 2057 0
1919 2060 2036 2039 0
1966 2037 2010 2002 0
2237 2055 2089 2067 0
1993 2056 2027 2054 0
1921 2065 2063 2074 0
2224 2068 2030 2040 0
2059 2039 2063 2038 0
1893 2066 2011 2034 0
2143 2053 2064 2038 0
2165 2051 2056 2093 0
1911 2069 2028 2079 0
2046 2052 2058 2109 0
2231 2066 2062 2048 0
1943 2057 2056 2070 0
1946 2042 2036 2031 0
2245 2081 2045 2043 0
2020 2060 2006 2019 0
1907 2069 2075 2059 0
2177 2056 2053 2104 0
2103 2051 2020 2023 0
1883 2069 2054 2021 0
2146 2059 2050 2062 0
2187 2068 2089 2095 0
1897 2071 2037 2079 0
2057 2087 2046 2070 0
2244 2061 2084 2070 0
1956 2068 2048 2032 0
1942 2050 2019 2033 0
2218 2053 2025 2022 0
2038 2065 2027 2040 0
1904 2063 2083 2123 0
2190 2071 2038 2053 0
2137 2052 2048 2020 0
1877 2049 2003 2024 0
2096 2059 2065 2070 0
2216 2076 2105 2136 0
1915 2055 2022 2013 0
1999 2049 2055 2033 0
2225 2057 2040 1991 0
1995 2053 2045 2116 0
1942 2064 2063 2085 0
2226 2054 2048 2083 0
2056 2052 2041 2019 0
1935 2076 1996 1961 0
2167 2071 2117 2192 0
2166 2077 2042 2083 0
1874 2035 2007 1994 0
2077 2061 2062 2052 0
2236 2073 2138 2091 0
1932 2092 2042 2113 0
1992 2069 2036 2057 0
2228 2070 1998 2024 0
1986 2060 2041 2035 0
1899 2035 2051 2045 0
2213 2063 2044 2058 0
2092 2061 2050 2056 0
1867 2061 2041 2039 0
2144 2065 2080 2058 0
2166 2056 2028 2034 0
1879 2055 2036 2055 0
2052 2047 2055 2063 0
2221 2049 2045 2047 0
1941 2069 2059 2041 0
1974 2070 2031 2070 0
2259 2080 2087 2111 0
2020 2063 2061 2077 0
1888 2058 2050 2076 0
2204 2052 2045 2043 0
2108 2061 2048 2046 0
1853 2050 2056 2088 0
2139 2070 2072 2079 0
2179 2061 2043 2058 0
1909 2063 2049 2043 0
2015 2047 2042 2032 0
2229 2050 2038 2050 0
1959 2070 2038 2050 0
1940 2041 2039 2008 0
2238 2088 2085 2155 0
2045 2056 2025 2049 0
1879 2049 1998 1976 0
2178 2061 2075 2114 0
2131 2047 2025 1988 0
1881 2074 2080 2164 0
2104 2060 2031 2048 0
2186 2042 2010 2024 0
1839 2001 1999 2010 0
2015 2058 2052 2047 0
2230 2058 2048 2049 0
1957 2033 2043 2053 0
1921 2042 2006 2063 0
2188 2030 1999 1981 0
2083 2075 2029 2050 0
1885 2058 2053 2056 0
2163 2047 2017 2038 0
2141 2051 2037 2018 0
1884 2055 2083 2095 0
2060 2040 1992 1996 0
2218 2053 2054 2085 0
1927 2060 2004 2007 0
1980 2060 2061 2060 0
2220 2049 2021 2031 0
2038 2087 2058 2059 0
1888 2032 2020 2026 0
2203 2065 2059 2070 0
2128 2055 2047 2041 0
1880 2060 2061 2044 0
2123 2050 2011 1906 0
2187 2077 2103 2171 0
1887 2045 2026 2027 0
2030 2047 2038 2095 0
2251 2080 2052 2106 0
1928 2056 2042 2030 0
1934 2025 2015 2015 0
2269 2093 2046 2087 0
2032 2064 2015 2001 0
1905 2085 2075 2129 0
2195 2056 2009 2019 0
2116 2057 2029 2027 0
1879 2062 2049 2063 0
2117 2052 2043 2038 0
2202 2059 2046 2039 0
1877 2032 2029 2036 0
2041 2074 2078 2087 0
2223 2062 2040 2011 0
1970 2076 2044 2048 0
1982 2087 2031 2017 0
2224 2061 2079 2139 0
2058 2072 2058 2109 0
1897 2058 2025 2046 0
2155 2036 2029 2008 0
2126 2052 2020 2031 0
1882 2049 2035 2054 0
2085 2051 2029 2055 0
2205 2064 2048 2056 0
1879 2025 2029 2018 0
2019 2053 2043 2035 0
2234 2068 2061 2081 0
1981 2064 2033 2054 0
1955 2089 2045 2056 0
2208 2045 2037 2045 0
2076 2062 2048 2057 0
1877 2048 2032 2042 0
2171 2060 2043 2054 0
2142 2047 2043 2047 0
1887 2071 2049 2057 0
2077 2050 2031 2046 0
2217 2068 2052 2072 0
1946 2078 2051 2066 0
1989 2058 2045 2055 0
2233 2060 2046 2058 0
2027 2084 2062 2071 0
1919 2064 2051 2056 0
2197 2062 2046 2053 0
2103 2071 2042 2052 0
1845 2039 2035 2049 0
2195 2107 2078 2090 0
2173 2055 2044 2056 0
1898 2067 2039 2059 0
2041 2045 2040 2029 0
2236 2073 2057 2052 0
1940 2061 2050 2073 0
1967 2058 2047 2061 0
2233 2057 2041 2061 0
2016 2047 2038 2043 0
1902 2065 2039 2042 0
2189 2061 2051 2056 1
2125 2069 2054 2055 1
1871 2053 2045 2045 1
2103 2048 2049 2052 1
2223 2088 2059 2066 1
1917 2066 2045 2050 1
2028 2065 2048 2063 1
2236 2059 2054 2062 1
1979 2056 2046 2061 1
1919 2043 2021 2043 1
2227 2072 2046 2054 2
2037 2041 2037 2047 2
1900 2057 2056 2050 2
2169 2074 2050 2057 2
2110 2035 2017 2032 2
1907 2082 2045 2055 3
2079 2055 2042 2046 3
2204 2070 2052 2061 3
1936 2069 2049 2054 3
1982 2047 2026 2037 3
2236 2079 2041 2060 4
1972 2041 2021 2042 4
1920 2046 2029 2047 4
2221 2069 2015 2047 4
2085 2071 2021 2058 5
1848 2023 1997 2040 5
2219 2110 2099 2109 5
2154 2071 2072 2068 5
1889 2064 2038 2055 6
2088 2053 1998 2036 6
2199 2051 2007 2052 6
1931 2067 2073 2081 6
1981 2043 2122 2062 7
2220 2047 2106 2047 7
2006 2066 2074 2059 7
1906 2072 2073 2064 7
2186 2045 2066 2060 8
2091 2055 2043 2046 8
1879 2056 1929 2024 8
2146 2062 1875 2015 8
2141 2031 1850 2015 9
1907 2064 1985 2056 9
2053 2063 2088 2069 9
2223 2062 2127 2062 9
1937 2042 2148 2048 10
1950 2045 2184 2087 10
2203 2052 2209 2102 10
2058 2085 2168 2099 11
1949 2100 2077 2079 11
2216 2104 1990 2077 11
2155 2092 2002 2081 12
1874 2044 2079 2045 12
2116 2067 2169 2081 12
2181 2055 2090 2039 13
1934 2076 1948 2009 13
2006 2029 1796 1975 13
2155 1990 1835 1960 14
1953 2023 1886 2017 14
1904 2046 1968 2047 15
2225 2066 2015 2079 15
2064 2062 2139 2109 15
1877 2072 2168 2062 16
2150 2057 2189 2062 16
2135 2045 2154 2057 17
1889 2049 2137 2068 17
2083 2062 1978 2040 17
2230 2079 1870 2030 18
1958 2085 1904 2047 18
2021 2069 2018 2083 19
2238 2080 2117 2093 19
2001 2056 2094 2045 20
1936 2052 2167 2051 20
2176 2043 2185 2056 20
2063 2047 2172 2074 21
1863 2033 2026 2058 21
2140 2059 2017 2065 22
2163 2065 2002 2052 22
1889 2053 1979 2013 23
2068 2054 1863 1993 23
2215 2059 1939 2031 24
1925 2051 1972 2025 24
1972 2046 1953 2020 25
2237 2058 1966 2038 25
2013 2065 2139 2065 26
1898 2058 2300 2127 26
2213 2089 2174 2089 27
2109 2068 1999 2076 27
1907 2077 2010 2070 28
2133 2056 2071 2076 28
2177 2059 2050 2048 29
1894 2058 1890 1999 29
2047 2055 1798 2001 29
2217 2050 2013 2027 30
1951 2052 2189 2101 30
1948 2056 2171 2057 31
2205 2055 2073 2054 31
2032 2056 1997 2041 32
1887 2041 2098 2063 32
2170 2046 2107 2062 33
2127 2064 2004 2045 33
1898 2064 1976 2011 33
2107 2053 1944 2029 34
2196 2068 2064 2091 34
1895 2043 2096 2059 35
2011 2049 2156 2085 35
2202 2053 2136 2051 36
1958 2045 2073 2055 36
1923 2045 2070 2056 37
2206 2050 1975 2049 37
2064 2053 1895 2033 37
1891 2046 1875 2018 38
2168 2061 2047 2069 38
2188 2119 2209 2131 39
1944 2118 2077 2107 39
2095 2080 2035 2073 40
2219 2057 1980 2021 40
1882 1999 2011 1983 41
1935 2010 2022 1982 41
2203 2035 2036 2021 42
1975 2025 2084 2033 42
1904 2056 2132 2101 42
2223 2096 2043 2112 43
2113 2089 1992 2087 43
1892 2048 1988 2032 44
2123 2053 2107 2050 44
2142 2054 2132 2040 45
1880 2045 1909 2013 45
2077 2063 1919 2047 46
2236 2068 2051 2075 46
1932 2065 2162 2067 47
1967 2045 2120 2041 47
2212 2042 2027 2018 47
2009 2059 1973 2048 48
1902 2057 2036 2049 48
2209 2071 2015 2093 49
2119 2071 2008 2063 49
1861 2049 2123 2073 50
2149 2080 2089 2051 50
2221 2092 2043 2086 51
1945 2102 2006 2091 51
2093 2104 2041 2075 52
2237 2073 2119 2073 52
1954 2058 2010 2031 52
1958 2058 1905 2035 53
2245 2084 2095 2099 53
2037 2074 2310 2114 54
1852 2026 2253 2076 54
2143 2021 2043 2000 55
2108 2046 1887 2015 55
1865 2046 2045 2052 56
2084 2025 1909 2005 56
2145 2013 1935 2031 56
1873 2009 1849 1958 57
1997 2028 1993 2000 57
2233 2063 2289 2143 58
1985 2064 2156 2106 58
1934 2064 1991 2022 59
2226 2073 1853 1998 59
2059 2063 2058 2084 60
1865 2040 2166 2125 60
2134 2047 2140 2090 61
2094 2029 1923 1990 61
1877 2035 2025 1998 62
2079 2047 2123 2036 62
2229 2078 2160 2085 62
1929 2045 1946 2026 63
2015 2060 1839 2031 63
2221 2047 1832 2035 64
1996 2059 2015 2036 64
1919 2038 2119 2018 65
2193 2059 2275 2080 65
2097 2076 2168 2079 66
1886 2068 2043 2082 66
2142 2058 1916 2044 67
2168 2059 1909 2024 67
1882 2059 1869 2070 67
2058 2041 1748 2006 68
2222 2064 2041 2063 68
1961 2068 2369 2131 69
1981 2064 2260 2021 69
2251 2094 2214 2107 70
2044 2077 2155 2153 70
1921 2067 2209 2123 71
2199 2075 2019 2035 71
2121 2072 1799 1959 71
1874 2039 1777 1972 72
2113 2055 2070 2059 72
2164 2051 2246 2131 73
1896 2059 2138 2070 73
2035 2069 2172 2104 74
2246 2075 1931 2033 74
1964 2059 1820 2011 75
1951 2040 2072 2054 75
2218 2064 2289 2079 76
2039 2055 2052 2024 77
1930 2080 1808 2015 77
2200 2085 1922 2050 78
2131 2092 2427 2209 78
1882 2069 2207 2083 79
2117 2050 1560 1891 79
2226 2049 1670 1955 80
1912 2060 2251 2175 80
2008 2054 2477 2143 81
2267 2093 1989 2088 81
1981 2087 1888 2015 82
1912 2054 2206 2107 82
2213 2069 2513 2215 83
2035 2047 2046 2021 83
1867 2035 1625 1933 84
2177 2044 2005 2002 85
2149 2047 2229 2097 85
1850 2051 2119 2049 86
2065 2038 1818 1961 86
2227 2049 1741 2005 87
1879 2036 2067 2063 87
1990 2061 2256 2130 88
2263 2058 1936 2008 88
1956 2009 1533 1866 89
1917 2053 2173 2071 89
2206 2074 2614 2250 90
2047 2057 2419 2140 90
1890 2047 1752 1982 91
2137 2023 1498 1885 91
2154 2068 2018 2084 92
1886 2062 2161 2067 92
2041 2051 2207 2111 93
2260 2071 2043 2015 93
1935 2069 2236 2095 94
2003 2090 2120 2043 94
2276 2064 1620 1935 95
2019 2072 1933 2031 95
1868 2061 2367 2277 95
2217 2078 2243 2120 96
2120 2085 2008 2083 96
1890 2050 1829 1902 97
2115 2021 2115 2028 97
2140 2018 2192 2071 98
1900 2065 2018 2089 98
2009 2012 1274 1842 98
2231 2069 2145 2149 99
1950 2064 2587 2213 99
1957 2078 2397 2104 100
2234 2089 2160 2069 100
2075 2067 1726 1988 100
1917 2093 1983 2041 101
2199 2053 1959 1993 101
2159 2065 1907 2065 102
1874 2079 2124 2138 102
2103 2085 1975 2113 102
2193 2039 2148 1981 103
1903 2053 2317 2076 103
2034 2077 1767 1950 104
2263 2075 1786 2009 104
2058 2138 2318 2278 104
1906 2068 2377 2161 105
2160 2029 2367 2080 105
1965 1885 1077 1590 105
1831 1979 1748 1918 106
2178 2102 2783 2344 106
2159 2085 2220 2114 106
1882 2040 1299 1893 107
2031 1961 1566 1885 107
2217 2107 2828 2379 107
1938 2128 2543 2171 108
1995 2052 1877 1970 108
2224 2016 1703 1887 108
1989 2037 2405 2111 109
1931 2109 2582 2259 109
2206 2024 1149 1774 110
2017 1946 1248 1797 110
1877 2081 2609 2365 110
2185 2112 2607 2203 111
2151 2044 1765 1967 111
1926 2035 1663 1921 111
2046 2038 2293 2115 112
2191 2068 2525 2183 112
1934 2033 1765 2048 112
1922 1937 1388 1823 113
2237 2126 2693 2379 113
2019 2135 2729 2211 113
1894 2074 1832 1938 114
2197 2024 1701 1946 114
2076 2015 1803 1895 115
1868 1991 1871 1992 115
2166 2085 2043 2099 115
2201 2104 2379 2248 116
1899 2131 2701 2265 116
2011 2081 2034 1945 117
2287 2027 1413 1852 117
1918 1976 1496 1938 117
1947 2089 2584 2226 118
2254 2053 2238 2099 118
1981 2022 1719 1895 118
1849 1956 1317 1789 119
2201 2086 2066 2096 119
2112 2074 2436 2121 119
1911 2173 2902 2281 120
2114 2084 2098 2028 120
2176 2035 1717 1908 120
1921 2102 2451 2336 120
2049 2085 2169 2049 121
2220 2035 1853 1950 121
1960 2003 1505 1841 121
1893 1952 1700 1948 122
2191 2047 2383 2191 122
2105 2117 2068 2073 122
1840 2034 1912 1981 122
2194 2069 1976 2002 123
2150 2086 2186 2132 123
1816 2015 1994 1995 123
2125 2072 2014 2079 123
2206 2015 1931 2013 123
1885 2021 1952 1991 123
2036 2106 2069 2121 123
2232 2026 1986 2033 123
2026 2126 2297 2170 123
1864 2013 2022 1990 123
2226 2036 1951 1993 123
2072 2050 1813 1963 123
1873 2082 2067 2124 123
2190 2063 2115 2077 123
2202 2100 2271 2127 123
1884 2076 2138 2082 123
2059 2045 2023 2033 123
2253 2067 1978 2048 123
1930 2066 1934 2037 122
1959 2063 2053 2028 122
2251 2066 2111 2075 122
2013 2045 1943 2011 122
1888 2068 2039 2059 121
2217 2078 2075 2083 121
2119 2075 1936 2046 121
1837 2046 1952 2011 120
2118 2055 2082 2037 120
2204 2094 2312 2129 120
1895 2089 2222 2130 119
2047 2093 2007 2088 119
2249 2066 1946 2015 118
1968 2086 2233 2122 118
1937 2076 2136 2082 117
2207 2064 2025 2039 117
2023 2048 2001 2048 116
1881 2056 1970 2021 116
2177 2058 1959 2024 115
2152 2061 1982 2034 115
1865 2057 1957 2048 114
2098 2060 2037 2069 113
2190 2053 1946 2006 113
1914 2053 1987 2037 112
2004 2054 1951 2031 111
2211 2067 2168 2114 111
1990 2057 2092 2029 110
1943 2074 2159 2090 109
2209 2070 2224 2146 108
2081 2081 2105 2093 107
1886 2075 2126 2081 107
2157 2044 1927 1981 106
2137 2060 1993 2036 105
1876 2065 2050 2055 104
2072 2050 2004 2028 104
2230 2069 1950 2026 103
1913 2056 1954 2013 102
2002 2075 2123 2100 101
2281 2093 2141 2111 100
2041 2106 2045 2109 99
1985 2103 2001 2075 99
2324 2135 1964 2073 98
2143 2097 1861 2039 97
1894 2095 2227 2168 96
2142 2093 2469 2216 95
2204 2074 2356 2114 94
1864 2061 2155 2059 93
2023 2003 1748 1920 92
2153 1979 1813 1917 91
1848 1993 2046 2045 90
1877 1985 1996 2003 89
2191 2002 1996 2010 89
1981 1994 1918 1969 88
1840 2018 1876 1986 87
2166 2015 1913 1995 86
2095 2025 1990 2018 85
1837 2024 2035 2030 84
2112 2048 2103 2082 83
2181 2055 2052 2043 83
1905 2050 2070 2055 82
2031 2056 1995 2048 81
2248 2081 2035 2089 80
2024 2106 2130 2127 79
1871 2004 2079 2013 78
2314 2111 2158 2099 77
2009 2022 2030 2015 76
1903 2080 1938 2023 75
2190 2036 1866 1972 74
2112 2019 1933 1976 73
1861 2069 2150 2097 71
2071 2057 2205 2146 70
2193 2070 2139 2107 69
1886 2046 2013 2048 68
2008 2044 1951 2030 67
2217 2060 1946 2065 66
2015 2049 2029 2035 65
1945 2083 2162 2096 64
2275 2105 2256 2117 63
2105 2079 1987 2032 62
1936 2145 1911 2058 62
2167 2082 2047 2070 61
2185 2091 2240 2125 60
1934 2111 2270 2131 59
2078 2066 2108 2055 59
2235 2097 1998 2066 58
1908 2041 1942 2025 57
1994 2056 1999 2049 57
2221 2056 2043 2050 56
1991 2043 2017 2030 55
1874 2021 1912 2002 54
2195 2048 1989 2050 54
2078 2044 2015 2037 53
1839 2038 1951 2003 52
2139 2058 1963 2017 51
2161 2046 2092 2059 51
1849 2023 2219 2057 50
2033 2037 2208 2060 49
2191 2031 2061 2018 49
1959 2062 1981 2041 48
1964 2051 2001 2056 47
2256 2072 2041 2104 46
2039 2054 2023 2065 46
1941 2087 2059 2088 45
2221 2077 2015 2070 44
2173 2111 2039 2095 44
1861 2042 2083 2061 43
2145 2078 2123 2069 43
2207 2053 2053 2047 42
1924 2084 2006 2061 41
2036 2059 1995 2053 41
2225 2046 2025 2060 40
1963 2070 2035 2045 40
1965 2080 2037 2076 39
2232 2054 2060 2067 38
2025 2035 2052 2044 38
1873 2047 2079 2045 37
2239 2096 2068 2075 37
2137 2060 2048 2068 36
1887 2054 2121 2073 36
2088 2048 2105 2069 35
2178 2055 2040 2072 35
1889 2039 2026 2041 34
2012 2051 2015 2032 34
2243 2064 2054 2051 33
1997 2071 2027 2042 33
1952 2059 2013 2049 33
2189 2034 2001 2024 32
2083 2075 2041 2060 32
1931 2091 2080 2083 31
2143 2069 2058 2070 31
2147 2068 2038 2048 31
1928 2072 2030 2058 30
2064 2057 2033 2049 30
2218 2068 2059 2066 30
1922 2050 2044 2042 29
1936 2014 2003 2007 29
2255 2067 2054 2062 28
2017 2071 2065 2063 28
1929 2066 2078 2096 28
2206 2051 2031 2035 28
2089 2078 2064 2086 27
1866 2056 2044 2039 27
2130 2038 2038 2049 27
2229 2093 2069 2095 26
1913 2078 2070 2083 26
2031 2041 2015 2017 26
2253 2073 2077 2067 25
1949 2050 2042 2056 25
1978 2092 2089 2117 25
2206 2048 2025 2055 25
2049 2064 2025 2042 24
1871 2030 2009 2024 24
2161 2056 2055 2052 24
2176 2098 2108 2107 24
1869 2059 2037 2045 23
2106 2071 2054 2083 23
2203 2059 2018 2033 23
1866 2024 1993 2003 23
2035 2079 2075 2072 22
2223 2042 2033 2015 22
1973 2053 2045 2053 22
1933 2051 2048 2054 22
2231 2055 2045 2062 22
2045 2054 2043 2052 22
1861 2020 2019 2017 21
2163 2056 2042 2035 21
2148 2058 2059 2066 21
1887 2058 2047 2037 21
2088 2047 2026 2041 21
2200 2034 2018 2055 20
1919 2047 2043 2062 20
1982 2059 2039 2053 20
2260 2088 2066 2078 20
1988 2044 2028 2037 20
1865 2022 2020 2031 19
2249 2087 2081 2084 19
2073 2056 2005 2012 19
1893 2057 2106 2106 19
2176 2079 2058 2079 19
2149 2045 2051 2057 19
1872 2052 2035 2016 18
2067 2062 2012 2049 18
2213 2069 2034 2081 18
1931 2074 2021 2084 18
1977 2035 2008 2024 18
2219 2037 2026 2029 17
2017 2063 2052 2061 17
1918 2065 2057 2055 17
2213 2045 2041 2037 17
2118 2075 2047 2058 16
1872 2058 2048 2043 16
2115 2043 2031 2031 16
2184 2053 2043 2048 15
1874 2050 2035 2035 15
2022 2043 2034 2035 15
2219 2052 2043 2042 15
1943 2047 2033 2039 15
1938 2045 2016 2025 14
2216 2050 2032 2041 14
2047 2045 2062 2060 14
1890 2042 2042 2021 14
2186 2069 2059 2094 14
2134 2070 2034 2043 14
1862 2042 2012 2029 13
2149 2086 2085 2111 13
2212 2064 2015 2042 13
1918 2073 2080 2114 13
2034 2076 2038 2060 13
2229 2053 2042 2058 13
1980 2087 2053 2054 13
1936 2058 2030 2033 13
2225 2054 2042 2027 13
2038 2029 2050 2073 13
1879 2064 2031 2059 13
2166 2057 2025 2055 12
2163 2071 2024 2015 12
1865 2040 2037 2039 12
2071 2049 2015 2029 12
2220 2061 2064 2085 12
1912 2055 2014 2033 12
1981 2043 2029 2043 12
2227 2039 2043 2033 12
2012 2082 2066 2065 11
1918 2059 2050 2055 11
2215 2078 2051 2058 11
2091 2067 2056 2056 11
1870 2056 2036 2047 11
2128 2046 2046 2024 11
2197 2088 2094 2111 11
1872 2040 2039 2022 11
2063 2065 2040 2025 11
2179 1997 2023 2004 11
1933 2071 1994 2045 11
1990 2082 2104 2127 10
2249 2058 2007 1984 10
2033 2068 2073 2100 10
1900 2071 2013 2068 10
2228 2091 2049 2154 10
2113 2060 2010 2006 10
1867 2048 2050 2058 10
2117 2051 2057 2059 9
2189 2055 2039 2076 9
1897 2049 2048 2037 9
2025 2046 2048 2038 9
2232 2065 2050 2072 8
1963 2051 2042 2051 8
1961 2068 2062 2059 8
2232 2069 2051 2065 8
2053 2075 2047 2068 7
1859 2027 2029 2043 7
2187 2070 2052 2060 7
2143 2078 2046 2033 7
1832 2031 2028 2010 7
2115 2057 2076 2041 7
2180 2048 2015 1953 7
1908 2055 2078 2051 6
1993 2032 1938 2099 6
2221 2057 2011 2009 6
1960 2048 2064 2071 6
1912 2021 1997 2040 6
2213 2069 2059 2144 6
2063 2064 1999 2090 6
1859 2039 1996 2000 6
2151 2037 2043 2054 5
2140 2041 2031 2061 5
1864 2042 2031 2013 5
2075 2051 2049 2038 4
2215 2060 2050 2058 4
1913 2056 2032 2037 4
1983 2054 2041 2038 4
2231 2071 2041 2030 4
2000 2077 2073 2028 3
1855 2004 2008 1993 3
2290 2125 2124 2103 3
2086 2056 2056 2039 3
1884 2067 2067 2019 3
2160 2062 2071 2091 3
2178 2075 2122 2125 3
1869 2071 2004 2086 3
2080 2068 1992 2102 2
2174 1998 1970 2029 2
1953 2091 2059 2131 2
1967 2067 2090 2092 2
2258 2063 2072 2084 1
2029 2060 2059 2075 1
1910 2073 2065 2067 1
2221 2080 2075 2061 1
2141 2079 2078 2072 1
1885 2073 2061 2068 1
2133 2070 2063 2059 1
2192 2064 2053 2055 0
1887 2053 2042 2047 0
2034 2062 2064 2047 0
2260 2091 2073 2076 0
1964 2069 2068 2069 0
1925 2027 2018 1992 0
2241 2067 2128 2105 0
2014 2040 2005 1967 0
1877 2063 2121 2199 0
2164 2017 1956 1966 0
2112 2019 1983 1943 0
1847 2040 1975 2093 0
2088 2053 2019 2142 0
2187 2047 1996 2135 0
1893 2039 2026 2038 0
1987 2035 2040 1988 0
2217 2047 2032 2070 0
1964 2043 2033 2037 0
1914 2037 2037 2015 0
2208 2059 2035 2042 0
2054 2059 2039 2048 0
1868 2049 2031 2028 0
2161 2056 2044 2048 0
2154 2065 2043 2057 0
1866 2049 2027 2029 0
2068 2063 2037 2003 0
2217 2054 2061 2064 0
1936 2072 2073 2075 0
2014 2081 2079 2134 0
2247 2068 2057 2074 0
1970 2035 2028 2012 0
1992 2108 2078 2083 0
2214 2066 2052 2062 0
2121 2089 2074 2084 0
1901 2068 2049 2073 0
2167 2085 2062 2079 0
2154 2058 2063 2062 0
1902 2062 2059 2053 1
2047 2036 2038 2038 1
2207 2063 2039 2031 1
1931 2048 2014 2048 1
1950 2026 2012 2037 2
2276 2094 2079 2092 2
1986 2038 2005 2028 2
1908 2060 2046 2041 3
2206 2057 2040 2054 3
2110 2042 2020 2035 4
1876 2064 2029 2031 4
2125 2070 2033 2052 5
2224 2094 2073 2073 5
1877 2046 2013 2033 6
2038 2067 2022 2048 6
2283 2114 2057 2086 6
1972 2072 2028 2056 7
1981 2067 2075 2075 7
2221 2054 2047 2067 8
2049 2063 2013 2049 8
1924 2078 1912 2046 8
2182 2055 1927 2042 9
2188 2115 2147 2125 9
1918 2085 2283 2122 9
2123 2089 2284 2101 10
2302 2131 2150 2107 10
1940 2090 1992 2052 11
2001 2075 2064 2084 11
2299 2136 2116 2119 11
1974 2043 2221 2088 12
1902 2028 2114 2025 12
2147 1986 2046 1986 13
1947 1937 1927 1913 13
1811 1979 1930 1971 14
2079 1987 1913 1993 14
2120 2030 1926 2014 15
1841 1999 1942 2023 15
2035 2027 1940 2040 15
2243 2090 1924 2042 16
1913 2038 1876 2005 17
1987 2052 1958 2040 17
2257 2080 2111 2110 17
2006 2079 2146 2100 18
1917 2058 2224 2091 19
2206 2050 2198 2052 19
2068 2039 2064 2012 20
1860 2048 1892 1972 20
2145 2053 1831 1996 21
2168 2069 1950 2049 21
1865 2043 2085 2091 22
2069 2095 2087 2112 22
2309 2125 2067 2139 23
1941 2059 2090 2076 24
1972 2069 2052 2051 24
2196 2036 2021 2021 25
2119 2123 2026 2049 25
1927 2082 2087 2107 26
2246 2115 2143 2111 26
2164 2073 2176 2098 27
1874 2045 2141 2040 28
2099 2072 2304 2120 28
2190 2094 2282 2145 29
1924 2074 2027 2054 29
2044 2068 1806 1999 30
2251 2086 1861 2050 30
1972 2078 2066 2104 31
1947 2059 2082 2065 32
2232 2057 1990 2043 33
2038 2045 1957 2022 33
1850 2023 2151 2069 34
2160 2047 2177 2059 35
2164 2082 2123 2040 35
1857 2037 2005 2033 36
2113 2070 1880 2006 37
2241 2081 1767 2015 37
1954 2098 1705 2027 38
2055 2096 1841 2042 39
2303 2144 2285 2203 40
2005 2089 2559 2193 40
1938 2091 2544 2171 41
2215 2060 2194 2027 42
2057 2045 2011 2029 42
1841 2035 1919 1999 43
2125 2032 1833 2019 44
2127 2031 1838 2008 45
1843 2014 1956 1982 46
2020 1998 1913 1949 46
2172 2002 1917 1937 47
1879 2007 1976 1981 48
1936 2013 2185 2059 49
2213 2048 2168 2102 49
1996 2051 1936 2029 50
1918 2048 1773 2001 51
2239 2072 2061 2069 51
2089 2083 2347 2175 52
1886 2084 2280 2129 53
2140 2057 2061 2052 54
2184 2064 1984 2019 54
1896 2059 1919 2027 55
2048 2051 1823 1969 56
2215 2059 1938 2045 56
1921 2037 2028 2045 57
1935 2023 2164 2049 58
2216 2062 2213 2065 58
2051 2071 2128 2063 59
1916 2058 1932 1998 60
2187 2045 1944 2042 60
2127 2059 2222 2114 61
1881 2075 2101 2083 62
2091 2049 1844 2015 62
2179 2052 1871 1993 63
1914 2059 2214 2081 64
2024 2086 2305 2113 64
2233 2071 2005 2065 65
1964 2033 1489 1909 66
1933 2036 1950 2052 66
2215 2061 2383 2108 67
2057 2060 2364 2096 67
1851 2043 2072 2026 68
2215 2088 1908 2010 69
2181 2128 1919 2055 69
1941 2097 1849 2115 70
2150 2083 1896 2035 70
2216 2066 2106 2039 71
1891 2060 2346 2071 72
2003 2069 2423 2114 72
2221 2052 2285 2141 73
1964 2049 2225 2088 74
1891 2020 1923 1993 74
2196 2006 1397 1838 75
2045 2029 1838 2007 76
1850 2035 2198 2127 76
2135 2043 1952 2023 77
2170 2040 1722 1918 78
1881 2060 2016 2039 78
2040 2056 2177 2112 79
2192 2038 1766 2049 79
1904 2030 1775 2012 80
2028 2071 2350 2120 81
2235 2096 2749 2240 81
2067 2104 2278 2039 82
1891 2046 1880 2019 82
2217 2075 2132 2056 83
2097 2085 2363 2189 83
1886 2056 1873 2027 84
2148 2037 1575 1907 85
2174 2059 1763 1973 85
1889 2064 2133 2042 86
2059 2070 2288 2054 86
2237 2085 2186 2115 87
1904 2027 1653 1937 88
1853 2020 1766 1962 88
2313 2074 2265 2154 89
2065 2089 2235 2149 89
1950 2076 1831 2042 90
2199 2007 1424 1812 90
2071 2017 1819 1929 91
1847 2047 2507 2162 91
2149 2086 2289 2122 92
2179 2063 2249 2137 92
1912 2101 2401 2182 93
2016 2072 2261 2109 93
2269 2063 1816 1979 94
1970 2039 1443 1888 94
1909 2039 1908 2014 95
2207 2051 2332 2140 95
2032 2051 2085 2023 96
1846 2034 1719 1951 96
2211 2056 1991 2083 97
2174 2097 2526 2234 97
1921 2082 1919 2063 98
2095 2047 1718 1971 98
2192 2031 1999 2029 99
1880 2039 1992 1983 99
2002 2050 2146 2060 100
2240 2080 2390 2112 100
1991 2070 2328 2165 101
1871 2013 1898 1869 101
2180 2052 1934 2046 102
2112 2084 2132 2154 102
1881 2090 2222 2151 103
2179 2030 1557 1987 103
2187 2018 1494 1859 104
1830 2046 2243 2087 104
2096 2093 2568 2246 105
2219 2041 1684 1879 105
1935 2032 1961 2080 106
1961 2052 2199 2075 106
2224 2011 1896 1956 107
1998 2069 2011 1990 107
1934 2071 2286 2233 107
2149 1984 1771 1834 108
2100 2085 2470 2249 108
1840 2068 2382 2148 109
2169 2135 2223 2153 109
2246 2138 1969 2063 110
1873 2010 1329 1804 110
2006 2054 1947 2015 111
2251 2079 2476 2190 111
1960 2074 2187 2093 112
1930 1970 1204 1764 112
2215 2008 1915 1955 112
2023 2064 1982 2099 113
1870 2068 2224 2200 113
2244 2077 2261 2161 114
2143 2072 2304 2087 114
1851 2130 2793 2323 114
2113 2019 924 1717 115
2128 1897 1518 1926 115
1903 2068 2814 2276 115
2044 2140 2773 2217 116
2229 2101 2219 2026 116
1997 2049 1675 1957 117
1915 2062 2150 2112 117
2221 2115 2194 2140 117
2078 2025 1356 1816 118
1871 1955 1294 1801 118
2153 2053 2008 2108 118
2099 2063 2335 2183 119
1922 2112 2501 2246 119
2045 1999 1839 1833 119
2268 2116 2403 2187 120
1865 1982 1230 1771 120
2028 2097 2382 2365 120
2248 2084 2150 2031 120
1953 2033 1944 1876 121
1916 2076 2409 2112 121
2225 2143 2235 2179 121
2028 2017 1920 2009 122
1903 2047 2114 2063 122
2143 2043 2043 1985 122
2138 2074 2361 2116 122
1878 2054 1573 1869 123
2035 2005 1470 1829 123
2249 2034 2091 2079 123
1940 2081 2305 2172 123
1929 1964 1551 1891 124
2258 1995 1359 1899 124
2002 1982 2234 2089 124
1951 2167 2657 2222 124
2218 2111 2463 2144 124
2106 2081 1833 1925 124
1897 2072 1754 1991 124
2171 2141 2407 2285 124
2183 2085 2208 2105 124
1940 2070 2149 2072 124
1993 1998 1921 1961 124
2201 2020 1907 1977 125
1962 2065 2110 2125 125
1918 2015 1873 1974 125
2211 2020 1869 2010 124
2042 2054 1881 1989 124
1857 2019 1901 1960 124
2190 2046 2209 2106 124
2167 2103 2279 2151 124
1859 2034 1823 1981 124
2139 2061 1991 2079 124
2224 2064 2139 2034 124
1886 2074 2243 2144 124
2021 2076 2088 2082 124
2272 2043 1913 1975 123
1939 2065 1988 2073 123
1872 2059 2065 2068 123
2275 2081 2164 2127 123
2087 2077 2139 2047 123
1888 2045 2061 1991 122
2207 2087 2084 2089 122
2123 2053 1851 1986 122
1849 2067 2080 2088 122
2115 2081 2085 2119 121
2250 2082 2055 2094 121
1897 2062 2003 2055 121
1970 2050 1931 2007 121
2214 2030 1770 1927 120
1989 2061 1936 2059 120
1916 2077 2197 2112 120
2211 2087 2379 2141 119
2067 2087 2262 2111 119
1825 2042 1984 1976 119
2155 2052 1944 2048 118
2152 2065 1963 2047 118
1863 2080 2121 2101 117
2046 2076 2160 2100 117
2262 2091 2157 2107 117
1907 2062 2003 2038 116
1977 2047 1860 1969 116
2232 2039 1914 2012 115
2037 2077 2094 2056 115
1916 2074 2147 2099 115
2176 2059 1982 2050 114
2122 2043 1910 1983 114
1874 2052 1977 1990 113
2137 2068 2186 2096 113
2224 2067 2079 2076 112
1875 2057 2015 2071 112
2015 2063 1997 2032 111
2253 2073 2113 2078 111
1959 2069 2187 2110 110
1955 2063 2033 2056 110
2221 2063 2015 2031 109
2039 2066 2074 2074 109
1878 2043 2018 2052 108
2198 2069 2075 2068 108
2153 2069 2007 2046 107
1904 2073 1888 2009 107
2110 2064 2010 2060 106
2224 2061 2116 2077 106
1868 2041 2133 2067 105
2000 2031 2023 2022 105
2188 2019 1845 1986 104
1934 2024 2002 2022 104
1864 2004 1954 1976 103
2280 2067 2153 2096 102
2104 2104 2240 2168 102
1926 2122 2175 2143 101
2207 2109 2154 2136 101
2187 2092 1996 2032 100
1852 2046 1941 2006 99
2070 2046 2001 2042 99
2215 2041 1910 2009 98
1854 2029 1907 1995 98
1998 2049 2067 2069 97
2259 2062 2147 2071 96
1977 2060 2197 2099 96
1955 2055 2014 2029 95
2199 2038 1905 1985 94
2055 2016 1971 2009 94
1809 1995 2009 2010 93
2122 2029 2071 2070 92
2134 2043 2010 2007 92
1873 2058 1956 2042 91
2077 2073 2061 2053 90
2244 2072 2022 2013 90
1912 2061 2111 2064 89
1956 2047 2184 2105 88
2245 2062 2150 2115 88
2010 2064 2113 2100 87
1908 2055 1982 2031 86
2213 2060 1967 2025 86
2093 2048 1997 2038 85
1848 2058 2024 2036 85
2153 2040 1995 2022 84
2191 2033 1861 1962 83
1930 2080 2028 2073 83
2029 2054 2092 2097 82
2232 2070 2091 2091 81
1957 2070 1994 2045 81
1931 2043 1868 2008 80
2217 2048 2104 2071 79
2034 2059 2191 2106 78
1871 2042 2249 2094 78
2176 2065 2109 2068 77
2145 2074 2135 2097 76
1881 2063 2096 2071 75
2087 2047 2007 2020 75
2205 2064 1974 2034 74
1904 2045 1976 2032 74
1999 2049 1971 2033 73
2244 2046 1965 2016 73
1961 2030 1959 2010 72
1932 2044 1999 2038 71
2194 2042 1982 2028 71
2079 2064 1915 2019 70
1873 2030 1959 2036 70
2162 2075 2153 2117 69
2181 2096 2302 2146 68
1913 2078 2185 2088 67
2083 2068 1995 2047 67
2213 2056 2068 2076 66
1921 2066 2133 2070 65
1966 2053 2183 2086 65
2222 2063 2056 2051 64
1990 2045 1958 2020 64
1880 2025 1957 2008 63
2233 2059 1977 2029 63
2088 2046 1963 2021 62
1894 2047 1906 2015 62
2151 2043 1944 2028 61
2176 2062 2038 2062 61
1897 2088 2133 2079 60
2076 2072 2094 2066 60
2240 2065 1983 2045 59
1931 2057 2060 2048 59
1954 2047 2119 2059 58
2233 2045 2108 2057 58
2014 2062 2019 2049 57
1891 2073 2075 2094 57
2200 2072 2159 2108 56
2124 2075 2122 2073 55
1860 2065 1969 2015 55
2124 2049 1940 2030 54
2187 2058 2022 2053 54
1881 2056 2089 2064 53
2030 2057 2085 2047 53
2242 2060 2065 2052 52
1962 2059 2046 2059 52
1918 2028 1953 2026 51
2270 2081 1983 2055 51
2045 2058 2021 2065 50
1878 2049 2069 2060 50
2224 2071 2114 2092 49
2139 2062 2017 2055 49
1883 2067 2010 2065 48
2136 2089 1976 2075 48
2224 2071 1986 2078 47
1897 2059 2138 2087 47
2016 2055 2227 2084 46
2234 2067 2199 2061 46
2010 2087 2080 2070 45
1958 2090 2017 2078 45
2250 2080 2043 2077 44
2076 2078 2015 2053 44
1888 2061 1991 2039 43
2134 2034 1992 2030 43
2135 2049 1997 2022 43
1858 2038 1994 2027 42
2074 2056 2025 2048 42
2185 2029 2030 2045 41
1903 2049 2019 2017 41
2044 2067 2035 2067 40
2190 2034 2021 2025 40
2023 2072 2074 2069 39
1914 2034 2059 2036 39
2157 2033 2015 2028 39
2100 2071 2008 2056 38
1880 2045 2050 2065 38
2125 2049 2098 2055 37
2145 2047 2080 2032 37
1905 2071 2030 2031 36
2047 2051 1995 2028 36
2222 2076 2055 2069 35
1953 2073 2094 2056 35
1970 2055 2091 2048 35
2235 2067 2053 2059 34
2044 2071 2034 2060 34
1902 2044 2021 2047 33
2239 2097 2066 2081 33
2098 2045 2022 2058 33
1904 2082 2057 2092 32
2137 2072 2048 2071 32
2205 2062 2056 2065 32
1904 2060 2033 2043 31
2024 2057 2039 2056 31
2220 2053 2033 2045 31
1992 2077 2056 2068 31
1937 2060 2045 2056 30
2235 2070 2049 2080 30
2056 2057 2036 2045 30
1865 2041 2033 2032 30
2152 2046 2046 2051 29
2143 2060 2049 2061 29
1875 2063 2049 2057 29
2093 2051 2025 2030 29
2204 2064 2047 2058 28
1896 2072 2040 2052 28
2016 2064 2048 2055 28
2242 2060 2045 2053 28
1977 2053 2039 2048 28
1921 2064 2040 2051 27
2204 2043 2023 2033 27
2066 2048 2023 2052 27
1900 2079 2051 2080 27
2174 2068 2032 2062 27
2178 2053 2075 2071 27
1879 2065 2103 2070 27
2084 2059 2093 2065 26
2231 2055 2066 2053 26
1915 2053 2040 2038 26
1953 2039 2020 2038 26
2211 2036 2006 2029 26
1996 2064 2030 2050 26
1897 2043 2020 2036 26
2223 2075 2051 2059 26
2087 2054 2022 2017 26
1883 2054 2057 2056 26
2134 2062 2067 2093 26
2165 2052 2009 2033 26
1878 2039 2043 2048 26
2044 2052 2009 2042 26
2215 2049 2021 2069 26
1950 2051 2021 2077 25
1954 2048 2007 2015 25
2202 2042 2041 2040 25
2022 2050 2051 2052 25
1912 2061 2044 2045 25
2187 2069 2061 2053 25
2113 2067 2062 2059 25
1915 2066 2065 2064 25
2103 2058 2040 2043 25
2192 2064 2052 2055 25
1899 2049 2028 2036 25
2025 2073 2063 2058 24
2229 2055 2055 2066 24
1982 2072 2061 2070 24
1972 2059 2048 2061 24
2204 2054 2031 2042 24
2036 2043 2021 2036 23
1886 2045 2024 2040 23
2136 2035 2018 2029 23
2130 2045 2034 2040 23
1870 2048 2026 2033 23
2063 2029 2019 2030 23
2191 2041 2018 2025 23
1919 2061 2069 2056 23
1947 2005 2013 2004 23
2246 2063 2068 2085 23
1983 2056 2045 2072 23
1931 2083 2041 2060 23
2201 2045 2024 2025 23
2058 2074 2070 2067 22
1908 2081 2053 2074 22
2171 2071 2063 2057 22
2165 2055 2038 2056 22
1886 2065 2046 2054 22
2083 2058 2045 2053 22
2222 2051 2056 2059 22
1919 2053 2042 2038 22
1978 2051 2049 2052 22
2232 2056 2048 2052 22
2001 2058 2031 2047 22
1915 2047 2042 2043 22
2199 2049 2044 2047 22
2098 2061 2056 2060 22
1843 2035 2022 2036 22
2124 2037 2026 2039 22
2176 2076 2050 2066 22
1879 2058 2044 2057 22
2035 2043 2035 2045 21
2250 2073 2033 2063 21
1925 2057 2023 2051 21
1959 2059 2036 2058 21
2242 2063 2036 2058 21
2029 2064 2024 2059 21
1890 2064 1955 2044 21
2186 2058 1910 2035 21
2153 2085 1970 2069 21
1889 2079 2045 2069 21
2099 2049 2098 2058 21
2203 2057 2157 2071 21
1881 2038 2207 2059 21
2013 2052 2239 2071 21
2225 2052 2171 2045 21
1959 2058 2071 2032 21
1931 2054 2013 2046 21
2226 2063 1976 2049 21
2064 2071 1941 2043 21
1900 2059 1883 2027 21
2163 2051 1919 2043 21
2146 2053 2001 2079 21
1867 2058 2093 2091 21
2093 2053 2080 2059 21
2193 2038 2138 2084 22
1938 2080 2008 2035 22
2013 2065 1995 2034 22
2241 2068 1959 2019 22
1981 2042 2092 2050 22
1919 2054 2170 2111 22
2191 2054 2197 2079 22
2076 2059 2089 2070 23
1878 2050 2095 2043 23
2140 2069 2090 2072 23
2175 2083 2072 2079 23
1909 2066 2007 2048 24
2076 2067 1911 2023 24
2224 2064 1781 2014 24
1941 2056 1730 1982 25
1988 2071 1814 2033 25
2203 2060 2131 2095 25
2017 2059 2404 2143 26
1929 2075 2369 2104 26
2206 2079 2131 2045 27
2121 2056 1866 1972 27
1881 2054 1964 2074 27
2112 2057 2123 2061 28
2176 2077 2125 2111 28
1896 2047 1881 2013 29
2023 2040 1958 2035 29
2205 2055 2163 2084 30
1933 2053 2233 2068 30
1944 2052 2044 2028 31
2240 2067 1929 2023 31
2067 2071 2019 2077 32
1905 2052 2062 2061 32
2194 2049 2054 2045 33
2123 2054 1915 2019 34
1858 2045 1864 2025 34
2087 2046 1982 2051 35
2189 2042 2019 2045 36
1884 2041 2073 2038 36
1995 2052 2239 2077 37
2239 2076 2387 2130 38
1958 2063 2227 2063 38
1917 2043 1956 1987 39
2226 2047 1733 1969 40
2054 2043 1945 2061 41
1858 2039 2092 2080 41
2161 2049 2022 2088 42
2135 2048 1708 1986 43
1856 2045 1729 1978 44
2094 2045 2227 2095 44
2225 2065 2353 2108 45
1913 2046 2258 2046 46
1991 2047 2076 2009 47
2219 2064 2159 2090 48
1973 2065 2123 2103 49
1897 2061 1800 2011 49
2243 2057 1758 2007 50
2062 2048 1945 2054 51
1875 2047 2080 2072 52
2164 2064 2152 2077 53
2160 2071 2144 2029 54
1890 2077 2224 2078 54
2079 2063 1924 1996 55
2241 2067 1797 1978 56
1923 2062 2071 2097 57
1987 2056 2249 2118 58
2211 2066 2344 2155 59
2029 2067 2070 2040 60
1924 2069 1881 2015 60
2218 2057 1760 1941 61
2109 2063 1890 2051 62
1913 2084 2117 2071 63
2165 2102 2334 2185 64
2228 2120 2236 2112 64
1930 2083 2048 2104 65
2019 2045 1866 1991 66
2209 2051 1994 2043 67
1976 2061 2055 2045 67
1974 2077 1985 2064 68
2241 2072 1968 2066 69
2055 2058 2079 2051 70
1879 2061 2286 2111 70
2192 2077 2283 2160 71
2128 2067 2058 2132 72
1855 2022 1939 1959 72
2040 1999 1946 1956 73
2115 1972 1846 1923 74
1849 1992 1921 1993 74
2015 2057 2217 2127 75
2198 2030 1924 1932 76
1956 2029 1942 1995 77
1869 2007 2064 2060 77
2164 2026 2124 2096 78
2048 2033 1766 1968 78
1878 2038 1909 1967 79
2175 2070 2269 2091 80
2146 2065 2445 2123 80
1889 2064 1987 1992 81
2063 2041 1624 1985 82
2245 2104 2108 2139 82
1964 2089 1853 2047 83
2015 2052 2074 2050 84
2249 2067 2364 2165 84
1999 2073 2330 2081 85
1925 2088 2251 2101 85
2208 2076 1937 2001 86
2128 2073 1688 2010 87
1823 2039 2010 2084 87
2123 2039 2081 2136 88
2179 2049 2044 2061 89
1882 2057 2309 2120 89
2067 2052 2088 2021 90
2199 2047 1885 1920 90
1948 2075 1972 2043 91
1989 2065 1949 2080 92
2275 2074 1979 2082 92
2004 2056 2437 2192 93
1900 2085 2425 2219 93
2264 2130 1993 2079 94
2150 2102 1706 1931 95
1885 2079 1875 2007 95
2129 2047 2341 2132 96
2163 2055 1899 2030 96
1909 2043 1349 1910 97
2022 2034 1876 2009 98
2233 2073 2364 2145 98
1994 2134 2845 2286 99
1957 2085 2156 2058 99
2233 2031 1580 1850 100
1987 1968 1894 1961 100
1834 2015 2264 2163 101
2109 2053 2198 2176 101
2128 2075 2271 2178 102
1873 2028 1874 1932 102
2073 1998 1706 1879 103
2155 1992 1504 1800 103
1831 2001 2039 2017 104
2021 2043 2467 2223 104
2235 2087 2265 2159 105
2019 2086 1936 2023 105
1913 2017 1625 1835 106
2217 2037 2065 2059 106
2042 2046 2203 2105 107
1881 2043 1673 1982 107
2178 2056 1886 2067 108
2139 2070 2199 2044 108
1872 2082 2481 2165 109
2105 2047 1849 1970 109
2233 2006 1727 2007 110
1879 2069 2554 2382 110
1986 2077 2312 2105 110
2277 2120 1952 2069 111
1978 2053 1324 1826 111
1942 2031 2263 2102 112
2234 2109 3042 2296 112
2082 2087 1864 1976 112
1886 2003 1639 1935 113
2197 2104 2257 2185 113
2207 2146 2547 2230 114
1915 2123 2081 2066 114
2050 1961 943 1691 115
2221 2053 2232 2108 115
1941 2111 2461 2178 115
1927 2059 2110 2018 116
2296 2081 1874 2029 116
1968 1970 1681 1897 116
1900 2077 2025 2045 117
2184 2045 1513 1929 117
2095 1949 1751 1916 117
1889 2098 2766 2318 118
2155 2068 2530 2140 118
2230 2150 2012 2070 118
1828 1994 1304 1781 119
2001 1963 2483 2214 119
2250 2132 2570 2226 119
1890 1987 2012 2002 120
2014 2177 2187 2099 120
2249 2075 1694 1911 120
2027 2084 2084 2131 121
1815 2026 1839 1986 121
2213 2028 1928 1936 121
2127 2100 1999 2084 122
1857 1979 1829 1974 122
2161 2044 2005 1978 122
2181 1971 2125 2093 123
1829 2023 2265 2085 123
1923 1956 1783 1952 123
2212 1886 1790 2053 123
1903 2034 2207 1989 124
1902 2177 2301 2073 124
2291 2249 2159 2114 124
2060 2142 1913 2069 124
1889 1977 2053 2095 124
2090 1958 1782 1863 125
2189 2119 2028 2031 125
1897 2157 2139 2157 125
2135 2117 2229 2200 125
2271 2087 2144 2091 125
1874 2021 1694 1938 125
2011 1996 1983 2112 125
2260 2038 2251 2095 125
1978 2037 2191 2059 125
1896 2009 1925 1946 125
2183 1995 1697 1950 125
2111 2063 2183 2139 125
1849 2040 2007 2020 125
2168 2079 2169 2113 125
2179 2033 1983 1986 125
1871 2066 2144 2086 125
2061 2064 2054 2075 125
2258 2084 2098 2111 124
1928 2062 2047 2031 124
1966 2055 2004 2020 124
2268 2063 1979 2034 124
2013 2072 1990 2011 124
1855 2051 2041 2059 123
2240 2107 2178 2147 123
2167 2105 2152 2142 123
1900 2091 2179 2144 123
2140 2060 2058 2018 122
2157 2033 1969 1996 122
1893 2073 2026 2069 122
2015 2031 1755 1937 121
2207 2062 2112 2106 121
2000 2073 2150 2069 121
1931 2088 2320 2141 120
2259 2081 2111 2064 120
2023 2000 1685 1894 120
1857 2055 1961 2075 119
2155 2087 2174 2110 119
2134 2082 2165 2079 118
1840 2043 1984 1985 118
2048 2035 1946 2006 118
2196 2081 2034 2083 117
1898 2059 2058 2057 117
2026 2074 2091 2093 116
2217 2053 1886 2016 116
1899 2058 1946 2075 115
1968 2036 2083 2026 115
2270 2090 2171 2079 114
2120 2089 2225 2081 114
1888 2062 1909 2016 113
2154 2065 2025 2043 113
2152 2048 2064 2031 112
1869 2058 2084 2052 112
2089 2078 2111 2107 111
2253 2083 2018 2059 111
1919 2069 2068 2074 110
1981 2047 1903 1981 110
2245 2043 1931 2027 109
1959 2031 1872 1989 109
1874 2064 2129 2108 108
2240 2075 2148 2111 107
2096 2060 2143 2095 107
1877 2038 2003 1994 106
2143 2024 1859 1942 106
2171 2047 2090 2061 105
1849 2061 2183 2100 105
2056 2060 2112 2063 104
2231 2062 2047 2034 103
1932 2047 1921 2000 103
1946 2050 1948 2015 102
2215 2049 2011 2047 102
2032 2067 2047 2057 101
1921 2067 2084 2089 100
2230 2069 1921 2021 100
2117 2034 1752 1918 99
1882 2057 1995 2045 98
2109 2075 2257 2171 98
2207 2086 2359 2180 97
1910 2074 2197 2096 96
2044 2058 2000 2027 96
2213 2056 1956 2054 95
1963 2064 2075 2061 94
1933 2041 2060 2011 94
2217 2047 2124 2051 93
2039 2055 2062 2048 92
1875 2030 1884 1992 92
2172 2030 1928 2005 91
2160 2057 2065 2092 90
1918 2091 2067 2091 90
2148 2109 2109 2125 89
2265 2096 2045 2075 89
1898 2029 1867 1954 88
1977 2015 1922 1979 87
2215 2047 2037 2087 86
1972 2099 2113 2107 86
1927 2071 2223 2160 85
2148 2007 2087 2003 84
2076 2056 2135 2081 83
1848 2054 1994 2022 83
2220 2092 2013 2064 82
2187 2085 2035 2047 81
1862 2056 2058 2049 81
2031 2034 2045 2033 80
2158 2012 1930 1973 79
1836 1987 1903 1971 79
1980 2043 2007 2041 78
2271 2062 2102 2071 78
2020 2054 2078 2056 77
1904 2020 1964 2003 76
2170 2019 1951 2023 76
2056 2047 2008 2032 75
1879 2062 2038 2061 74
2150 2062 2020 2060 74
2156 2054 1935 2017 73
1854 2045 2133 2103 73
2046 2057 2252 2091 72
2231 2071 2244 2111 71
1960 2079 2139 2097 71
1973 2071 1987 2047 70
2267 2092 1987 2066 69
2047 2082 2031 2061 69
1901 2051 2002 2035 68
2179 2041 1963 2005 68
2105 2056 2017 2048 67
1867 2055 2013 2047 67
2117 2057 2038 2055 66
2183 2053 1967 2001 66
1906 2038 1893 1987 65
1995 2029 1988 2047 65
2228 2046 2113 2084 64
1916 2037 2160 2107 64
1931 2061 2060 2060 63
2221 2066 2074 2059 63
2049 2061 2144 2065 62
1867 2040 2143 2039 61
2169 2054 2074 2023 61
2134 2060 1981 2024 60
1877 2058 2005 2057 60
2088 2054 2011 2050 59
2214 2066 2008 2051 59
1903 2061 1995 2039 58
2024 2068 2011 2045 58
2247 2067 2009 2054 57
1997 2076 2034 2066 57
1926 2049 1991 2047 57
2235 2067 1920 2039 56
2067 2046 1947 2037 56
1887 2058 2151 2081 55
2154 2062 2289 2120 54
2174 2082 2161 2095 54
1877 2084 2121 2096 54
2056 2065 2089 2064 53
2206 2065 2155 2079 53
1928 2058 2060 2038 52
1970 2056 1979 2035 52
2236 2058 1978 2040 51
2017 2059 2000 2035 51
1906 2055 1983 2031 50
2179 2056 1974 2037 50
2102 2064 2013 2067 50
1904 2061 2033 2062 49
2160 2073 2049 2070 49
2205 2058 2034 2056 49
1890 2048 2013 2043 48
2064 2073 2051 2083 48
2221 2056 2056 2053 48
1957 2067 2018 2028 47
1959 2046 2044 2053 47
2216 2054 2078 2052 47
2026 2057 2102 2061 46
1896 2051 2089 2040 46
2192 2051 2069 2047 45
2119 2063 2051 2062 45
1867 2063 2041 2060 44
2110 2055 2035 2049 44
2187 2063 2046 2046 44
1883 2046 2047 2033 43
2027 2059 2025 2049 43
2229 2060 1998 2033 42
1963 2058 1981 2046 42
1939 2050 2016 2056 42
2229 2061 2079 2070 41
2067 2072 2129 2079 41
1880 2054 2078 2051 41
2180 2057 2044 2052 40
2148 2061 2017 2059 40
1885 2058 2015 2050 40
2095 2059 2035 2064 39
2231 2088 2054 2077 39
1917 2059 2064 2061 38
2046 2097 2075 2073 38
2258 2081 2068 2073 38
1993 2071 2053 2079 37
1912 2045 2040 2034 37
2213 2068 2024 2045 37
2095 2078 2056 2072 36
1877 2060 2040 2049 36
2166 2061 2042 2056 36
2157 2052 2033 2046 35
1880 2052 2037 2045 35
2057 2048 2042 2047 35
2200 2044 2032 2040 34
1888 2022 2025 2032 34
1973 2048 2035 2046 34
2223 2041 2027 2039 33
1998 2043 2029 2042 33
1911 2054 2053 2068 33
2173 2043 2023 2023 32
2146 2118 2129 2128 32
1881 2058 2074 2066 31
2160 2103 2123 2127 31
2193 2063 2042 2045 31
1864 2036 2011 2018 30
2064 2075 2054 2056 30
2239 2071 2048 2069 30
1990 2105 2130 2137 30
1985 2103 2062 2075 29
2225 2055 2058 2055 29
2049 2078 2056 2080 29
1906 2053 2028 2060 28
2180 2073 2046 2057 28
2117 2052 2038 2049 28
1874 2042 2028 2030 27
2093 2054 2031 2031 27
2192 2056 2033 2040 27
1904 2043 2034 2043 27
1996 2037 2019 2030 26
2219 2037 2024 2035 26
1967 2065 2047 2052 26
1959 2053 2043 2033 26
2200 2051 2038 2039 26
2072 2075 2080 2085 25
1876 2045 2047 2063 25
2143 2057 2032 2065 25
2158 2079 2051 2074 25
1842 2025 2006 2016 25
2124 2067 2058 2081 25
2217 2070 2048 2061 25
1918 2052 2047 2060 24
2016 2057 2043 2044 24
2235 2059 2046 2040 24
1994 2064 2040 2030 24
1944 2088 2058 2079 24
2214 2053 2042 2057 24
2067 2051 2028 2054 24
1876 2050 2028 2036 24
2146 2051 2030 2015 24
2170 2073 2084 2078 24
1875 2051 2024 2047 24
2060 2051 2038 2057 24
2216 2061 2028 2055 23
1927 2050 2033 2043 23
1971 2066 2056 2064 23
2263 2074 2052 2067 23
2025 2067 2041 2044 23
1912 2063 2045 2056 23
2227 2073 2055 2067 23
2100 2053 2033 2049 23
1899 2074 2088 2097 23
2137 2070 2048 2059 22
2195 2073 2065 2077 22
1876 2046 2035 2049 22
2015 2029 2024 2030 22
2256 2097 2075 2085 22
1922 2029 2013 2013 22
1949 2047 2037 2033 21
2227 2047 2053 2044 21
2027 2058 2064 2080 21
1893 2063 2044 2049 21
2216 2081 2057 2067 21
2124 2053 2031 2026 21
1877 2059 2046 2051 21
2099 2045 2043 2066 21
2201 2057 2010 2035 20
1891 2034 2031 2062 20
2011 2057 2039 2058 20
2247 2070 2047 2069 20
1944 2039 2015 2045 20
1930 2040 2033 2048 20
2219 2055 2033 2048 20
2077 2091 2053 2064 20
1873 2026 2038 2021 19
2187 2075 2099 2105 19
2118 2042 2029 2025 19
1888 2059 2056 2055 19
2076 2047 2048 2055 19
2212 2066 2039 2056 19
1918 2054 2039 2093 19
2018 2094 2053 2090 18
2195 2039 2023 2057 18
1971 2034 2029 2035 18
1948 2037 2046 2037 18
2232 2097 2091 2082 18
2072 2047 2030 2022 18
1868 2039 2051 2053 18
2144 2043 2027 2036 17
2150 2052 2030 2052 17
1922 2067 2022 2016 17
2044 2037 2041 2035 17
2210 2047 2061 2050 17
1939 2074 2070 2085 17
1966 2050 2019 2021 17
2229 2060 2044 2039 16
2018 2065 2055 2049 16
1925 2062 2055 2061 16
2200 2080 2024 2093 16
2069 2017 1965 1989 16
1885 2053 2070 2101 16
2165 2127 2116 2112 16
2196 2070 2064 2079 15
1889 2051 2029 2035 15
2074 2089 2055 2071 15
2225 2051 2048 2072 15
1926 2029 2029 2043 15
1982 2061 2055 2049 15
2237 2071 2056 2052 14
2127 2170 2171 2163 14
1863 2009 1970 1937 14
2171 2030 2051 2053 14
2117 2047 2018 2043 14
1856 2065 2039 2072 14
2139 2099 2045 2093 14
2198 2041 2003 1959 14
1886 2043 2028 2044 13
1997 2060 2021 2069 13
2253 2075 2085 2122 13
1979 2074 2044 2060 13
1935 2050 2033 2050 13
2173 2010 2016 2023 13
2033 2024 2014 2029 13
1880 2057 2041 2037 13
2171 2058 2032 2038 12
2165 2070 2061 2070 12
1885 2072 2061 2040 12
2050 2041 2035 1985 12
2202 2049 2056 2028 12
1927 2059 2031 2055 12
1993 2070 2042 2114 12
2227 2048 2015 2047 12
2005 2069 2035 2059 11
1921 2074 2054 2071 11
2196 2051 2026 2037 11
2099 2059 2047 2073 11
1877 2049 2033 2034 11
2139 2068 2042 2064 10
2175 2058 2033 2027 10
1880 2043 2027 1989 10
2060 2066 2106 2106 10
2215 2061 2048 2089 9
1954 2065 2045 2073 9
1968 2064 2042 2029 9
2224 2060 2047 2056 9
2010 2049 2028 2050 9
1896 2045 2011 2035 8
2197 2065 2055 2054 8
2096 2046 2037 2040 8
1855 2033 2021 2019 8
2107 2041 2025 2022 8
2163 2046 2037 2043 8
1882 2051 2033 1996 7
2053 2065 2099 2052 7
2228 2067 2023 2092 7
1968 2079 2037 2081 7
1964 2075 2026 2113 7
2229 2065 2021 2022 7
2008 2041 2042 2048 7
1904 2071 2061 2080 7
2190 2061 2045 2047 7
2134 2058 2058 2061 7
1847 2023 2031 2043 6
2114 2060 2040 2050 6
2200 2071 2015 2054 6
1916 2069 1998 2048 6
2021 2057 2031 2059 6
2227 2072 2113 2078 6
1975 2056 2117 2050 6
1941 2049 2068 2038 6
2224 2059 1985 2033 6
2060 2062 1915 2045 6
1883 2056 1986 2055 6
2171 2063 2018 2055 6
2137 2048 2060 2071 6
1870 2056 2118 2054 6
2076 2056 2028 2035 6
2226 2075 2008 2034 6
1921 2058 1958 2038 6
1989 2050 2143 2089 7
2235 2081 2307 2114 7
1983 2057 2294 2071 7
1919 2054 2080 2011 7
2208 2053 1924 2015 8
2099 2074 1968 2015 8
1863 2050 2116 2120 9
2171 2079 2071 2104 9
2180 2065 1980 2082 9
1893 2071 1983 2048 10
2059 2063 2075 2074 11
2221 2055 2092 2050 11
1937 2059 1973 2022 12
1979 2064 1891 2026 13
2249 2059 1947 2056 13
2026 2064 2044 2067 14
1907 2070 2048 2054 15
2227 2088 2113 2066 15
2155 2098 2084 2102 16
1922 2099 2024 2070 17
2185 2105 1963 2065 17
2214 2096 2083 2108 18
1911 2088 2268 2130 19
2035 2067 2225 2125 20
2237 2081 2054 2068 20
1959 2079 1930 2043 21
1923 2027 2090 2037 22
2222 2056 2162 2037 22
2014 2034 1989 1990 23
1858 2017 1840 1954 24
2150 2025 1833 2006 25
2096 2015 1965 2020 25
1831 2003 1934 1969 26
2050 1995 1915 1967 27
2160 2011 1884 1975 27
1870 2012 1960 2029 28
1976 2011 1915 2006 29
2181 2024 2144 2053 29
1946 2048 2392 2173 30
1912 2070 2374 2161 31
2214 2072 2182 2112 31
2112 2084 2046 2079 32
1940 2091 1913 2023 33
2194 2077 1888 1993 34
2159 2067 1895 2003 34
1878 2061 2116 2066 35
2083 2079 2286 2164 36
2215 2077 2124 2086 37
1952 2050 1900 2000 37
1998 2048 1857 1976 38
2217 2069 2060 2135 39
1989 2074 2192 2100 40
1924 2057 2080 2069 41
2202 2037 1833 1917 41
2065 2041 1934 1988 42
1881 2051 2052 2039 43
2140 2070 2179 2139 44
2173 2070 2037 2089 45
1907 2066 1963 2030 46
2061 2061 2134 2073 46
2217 2087 2282 2115 47
1978 2091 2043 2133 48
2007 2089 1864 2015 49
2236 2077 2090 2067 50
2055 2080 2227 2078 50
1915 2069 2209 2097 51
2202 2079 2108 2107 52
2118 2059 1904 2024 53
1863 2040 1867 1978 54
2097 2033 1784 1971 54
2168 2051 2031 2080 55
1899 2044 2109 2062 56
2000 2033 2064 2024 57
2230 2045 1997 2034 58
1951 2039 1898 2025 59
1937 2045 2024 2056 59
2205 2056 2153 2113 60
2050 2042 2099 2013 61
1894 2048 1961 2024 62
2185 2051 2057 2053 62
2111 2060 2290 2059 63
1866 2074 2539 2211 64
2093 2056 2051 2033 65
2210 2037 1512 1895 66
1926 2046 1784 1956 66
2086 2160 2413 2283 67
2273 2130 2120 2142 68
1969 2055 1842 1985 69
1912 2016 2060 2038 69
2203 2049 2351 2128 70
2052 2075 1886 2021 71
1864 2023 1736 1957 72
2144 2029 1909 2008 72
2113 2051 2305 2154 73
1847 2065 2317 2079 74
2083 2033 2011 1970 75
2208 2012 1938 1930 75
1875 2027 2011 2010 76
1992 2063 1977 2093 77
2230 2045 1743 1988 77
1987 2073 2120 2125 78
1902 2069 2009 2041 79
2198 2068 2180 2061 80
2109 2046 1700 1891 80
1850 2019 1697 1883 81
2175 2087 2369 2210 82
2229 2123 2605 2258 82
1923 2113 2323 2200 83
2063 2045 1900 2015 84
2201 2042 1945 1992 84
1938 2068 2199 2095 85
2001 2091 2145 2064 86
2267 2059 1574 1901 86
2039 2065 1898 2056 87
1852 2025 1817 1988 88
2164 2024 1749 1959 88
2090 2034 2247 2117 89
1864 2058 2503 2163 89
2121 2083 2550 2162 90
2220 2095 1894 1979 91
1919 2077 1680 2033 91
2056 2092 2227 2123 92
2239 2062 2274 2183 92
1943 2029 1903 1980 93
1894 2003 1739 1887 94
2235 2028 2136 2023 94
2033 2098 2547 2245 95
1893 2072 2185 2109 95
2162 2030 1496 1891 96
2123 2003 1653 1865 96
1832 2032 2240 2101 97
2106 2073 2059 2111 97
2208 2060 1836 1985 98
1894 2055 1781 1959 98
2008 2047 2294 2144 99
2216 2064 2481 2194 99
1978 2049 1961 1992 100
1960 2057 1687 1956 100
2200 2043 1753 1994 100
2069 2071 2159 2039 101
1854 2043 1972 2087 101
2155 2086 2441 2199 102
2193 2087 2280 2112 102
1871 2043 1965 1992 102
2089 2066 1988 1947 103
2230 2055 1741 1941 103
1929 2084 2112 2134 103
1967 2074 2251 2230 104
2301 2091 2120 2134 104
1963 2046 1742 1909 104
1894 2043 2156 1934 105
2239 2054 2330 2140 105
2069 2041 2340 2141 105
1884 2078 2190 2153 105
2145 2025 1319 1845 106
2164 2031 1647 1975 106
1846 2030 2159 2047 106
2049 2055 2263 2044 107
2245 2055 1757 1908 107
1903 2034 1763 1988 107
1937 2055 2006 2083 108
2221 2045 2119 2046 108
2019 2076 2425 2186 108
1858 1991 1919 1881 108
2239 2108 2407 2211 109
2114 2075 2071 2118 109
1864 2091 2048 2149 109
2160 2071 2049 1989 110
2201 2061 2063 1957 110
1881 1999 1411 1825 110
1943 2031 1822 2072 110
2294 2103 2466 2256 111
1935 2045 2201 2082 111
1903 1977 1449 1838 111
2262 2000 1856 2108 112
2079 2125 2467 2248 112
1856 2120 2544 2204 112
2312 2127 2073 2018 112
2160 2016 1898 1973 113
1828 2079 2617 2250 113
2131 2119 2425 2166 114
2227 2082 1813 1923 114
1883 2072 1880 2046 114
1975 2023 1775 1989 115
2189 1946 1204 1711 115
1961 1999 1746 1966 115
1876 1996 2111 2120 116
2203 2070 2117 2029 116
2114 2087 1860 2005 116
1887 2068 2226 2256 117
2264 2209 2776 2459 117
2162 2097 2307 2158 117
1846 2050 2153 2021 118
2043 2049 2260 2113 118
2171 2054 2307 2110 118
1888 2067 2118 2041 119
1935 1906 946 1554 119
2175 1935 1733 1923 119
1991 2101 2625 2324 120
1895 2080 2373 2159 120
2231 2074 1948 2026 120
2095 2023 1699 1897 121
1834 1990 1956 2006 121
2146 2111 2214 2161 121
2185 2039 1954 2034 121
1844 2027 1819 1939 122
2057 2066 1977 2031 122
2219 2018 1688 1935 122
1899 2013 1749 1944 122
1960 2040 2202 2120 122
2200 2049 2338 2071 122
2030 2105 2466 2216 122
1920 2113 2198 2117 122
2246 2117 2222 2151 122
2133 2081 2107 2093 122
1887 2057 1967 2009 122
2130 2070 1969 2056 122
2222 2078 2008 2071 122
1892 2057 2024 2048 122
2023 2041 1979 2035 122
2251 2060 1933 2048 122
1942 2045 1859 2012 121
1945 2059 2032 2043 121
2235 2069 2157 2084 121
2032 2079 2050 2025 121
1860 2025 1744 1942 121
2185 2041 1993 2051 120
2118 2091 2303 2168 120
1899 2075 2280 2106 120
2112 2106 2285 2169 120
2251 2087 2096 2107 119
1844 2073 2128 2091 119
2052 2075 1951 2003 118
2235 2053 1898 2000 118
2006 2065 2026 2067 118
1946 2076 2072 2067 117
2222 2061 1923 2006 117
2059 2051 1966 2034 117
1861 2062 2063 2059 116
2149 2072 2055 2077 116
2141 2046 1982 2064 115
1837 2018 1939 1973 115
2063 2048 2167 2043 114
2208 2054 2219 2073 114
1913 2063 2102 2081 113
1980 2066 2094 2107 113
2263 2069 1984 2033 112
1983 2053 1955 2004 111
1913 2067 2026 2034 111
2221 2079 2112 2105 110
2105 2088 2194 2133 110
1881 2062 2010 2040 109
2135 2042 1900 1983 108
2184 2059 1961 2019 108
1883 2058 2058 2080 107
2075 2075 2058 2056 107
2261 2062 1942 2001 106
1952 2067 1979 2059 105
1977 2089 2087 2125 105
2251 2075 2207 2126 104
2041 2073 2204 2114 103
1878 2044 2040 2023 102
2176 2037 2071 2043 102
2088 2033 2078 2060 101
1832 2016 1950 1976 100
2107 2041 1969 2038 99
2202 2065 2007 2057 99
1921 2084 2125 2103 98
2040 2069 2077 2062 97
2256 2072 2041 2052 96
1962 2060 1981 2035 96
1925 2044 1914 2016 95
2226 2049 1868 1968 94
2031 2019 1829 1956 93
1819 2023 2050 2051 92
2170 2062 2224 2140 92
2168 2075 2310 2171 91
1889 2071 2216 2121 90
2113 2019 2043 2020 89
2205 2047 1929 2006 88
1876 2047 1979 2049 87
1967 2034 1977 2029 87
2252 2061 2036 2069 86
1957 2045 2077 2035 85
1905 2041 1968 2040 84
2198 2028 1897 1973 83
2084 2072 2064 2070 83
1918 2083 2079 2112 82
2209 2103 1972 2070 81
2189 2084 2032 2101 80
1897 2065 2112 2096 79
2054 2057 2275 2119 79
2232 2064 2198 2061 78
1921 2052 1981 2008 77
1954 2039 1892 2002 76
2211 2045 2006 2056 76
1983 2042 2053 2025 75
1894 2059 2110 2051 74
2212 2071 2073 2060 73
2099 2071 1994 2046 73
1895 2071 1980 2042 72
2166 2070 1933 2012 71
2190 2083 1928 2064 71
1877 2069 2054 2070 70
2070 2050 2106 2068 69
2225 2056 2161 2077 69
1923 2013 1828 1937 68
1925 2006 1891 2004 67
2219 2049 2171 2115 67
2025 2080 2317 2145 66
1903 2071 2272 2147 65
2209 2071 2033 2035 65
2132 2086 1997 2040 64
1882 2075 2057 2053 64
2112 2043 1975 2017 63
2196 2065 1957 2029 63
1895 2044 1981 2017 62
2011 2046 2027 2048 62
2238 2048 2021 2033 61
1947 2035 2008 2022 61
1910 2045 2002 2039 60
2199 2025 1948 2003 60
2032 2025 1899 1989 59
1876 2064 1999 2034 59
2202 2088 2147 2130 58
2141 2065 2186 2100 57
1858 2047 2157 2069 57
2098 2064 2002 2035 56
2205 2048 1944 2022 56
1912 2052 2048 2066 55
1989 2053 2160 2087 54
2233 2067 2178 2071 54
1981 2060 2083 2057 53
1918 2056 1985 2031 53
2244 2076 2022 2073 52
2089 2070 2036 2047 52
1880 2048 1975 2036 51
2146 2063 1992 2061 51
2169 2053 1989 2064 50
1875 2060 2023 2049 50
2060 2041 2017 2040 49
2265 2089 2048 2085 49
1911 2048 2099 2059 48
1980 2049 2067 2050 47
2223 2036 2034 2030 47
1966 2041 1961 2032 46
2012 2137 2071 2130 46
2205 2061 2031 2050 45
2117 2067 2139 2073 45
1872 2049 2152 2060 44
2131 2063 2118 2066 44
2181 2074 2059 2059 44
1900 2067 2001 2048 43
2042 2048 1994 2038 43
2205 2056 2009 2040 42
1947 2059 2007 2048 42
1965 2058 2016 2054 41
2228 2063 2027 2057 41
2049 2072 2047 2065 41
1905 2059 2050 2057 40
2208 2064 2057 2063 40
2112 2047 2018 2035 39
1838 2015 1996 2014 39
2094 2034 2020 2047 38
2203 2077 2048 2076 38
1920 2067 2065 2073 38
2036 2064 2061 2053 37
2197 2050 2058 2034 37
1952 2049 2030 2029 36
1940 2053 2041 2052 36
2218 2048 2055 2066 36
2069 2074 2098 2069 35
1880 2057 2075 2056 35
2164 2059 2061 2051 34
2167 2071 2058 2063 34
1874 2053 2021 2044 33
2110 2089 2055 2079 33
2228 2068 2051 2068 33
1923 2062 2032 2063 32
1986 2049 2023 2045 32
2231 2061 2045 2068 31
1968 2043 2023 2037 31
1941 2059 2041 2048 30
2181 2048 2022 2034 30
2127 2119 2088 2097 30
1889 2059 2031 2045 29
2133 2064 2026 2039 29
2176 2053 2055 2075 29
1864 2038 2030 2032 28
2069 2058 2059 2049 28
2219 2062 2040 2045 28
1937 2066 2036 2059 27
1993 2071 2059 2073 27
2239 2065 2052 2059 27
1993 2041 2040 2041 26
1915 2063 2056 2077 26
2182 2033 2003 2027 26
2104 2069 2072 2079 25
1888 2042 2027 2024 25
2129 2048 2049 2050 25
2165 2048 2034 2047 25
1876 2052 2032 2048 25
2061 2064 2055 2066 24
2224 2074 2036 2042 24
1946 2060 2049 2043 24
1964 2062 2051 2064 24
2252 2071 2056 2071 24
2033 2058 2056 2072 24
1889 2052 2033 2045 23
2198 2078 2050 2068 23
2121 2052 2055 2065 23
1868 2048 2023 2023 23
2120 2073 2104 2079 23
2198 2064 2039 2043 23
1913 2068 2049 2063 22
2025 2058 2044 2054 22
2231 2066 2043 2055 22
1971 2063 2040 2045 22
1941 2053 2064 2051 22
2214 2052 2050 2056 22
2051 2051 2042 2059 21
1885 2049 2032 2043 21
2162 2051 2044 2034 21
2138 2059 2049 2060 21
1880 2055 2045 2068 21
2106 2074 2038 2056 21
2221 2072 2066 2058 20
1907 2049 2031 2020 20
2014 2057 2054 2075 20
2230 2062 2039 2087 20
1963 2047 1996 2024 20
1911 2037 2045 2055 20
2161 2012 1998 2029 20
2082 2057 2054 2075 20
1868 2044 2008 2014 19
2135 2047 2027 2019 19
2151 2045 2075 2079 19
1878 2043 1999 2007 19
2048 2040 2026 2052 18
2218 2069 2043 2062 18
1936 2054 2033 2037 18
1983 2063 2051 2068 18
2238 2075 2056 2073 17
2031 2076 2053 2071 17
1904 2066 2050 2051 17
2188 2053 2043 2046 17
2121 2075 2046 2049 17
1900 2067 2064 2073 16
2161 2083 2066 2053 16
2193 2073 2075 2081 16
1907 2083 2080 2077 16
2048 2078 2049 2069 16
2220 2049 2039 2059 15
1955 2069 2055 2056 15
1941 2038 2042 2041 15
2227 2059 2048 2047 15
1981 2034 2017 2046 15
1908 2066 2024 2047 15
2192 2080 2043 2061 14
2121 2057 2053 2054 14
1903 2064 2061 2063 14
2103 2061 2030 2037 14
2200 2069 2039 2059 14
1903 2062 2035 2052 14
2003 2048 2034 2037 13
2256 2067 2047 2058 13
1965 2057 2047 2051 13
1939 2059 2037 2046 13
2166 2010 2004 2015 13
2065 2068 2023 2065 13
1889 2060 2057 2072 13
2169 2064 2050 2057 12
2150 2043 2020 2035 12
1860 2051 2030 2045 12
2084 2066 2039 2059 12
2214 2053 2055 2056 12
1915 2052 2038 2027 12
1959 2027 2016 2042 11
2245 2067 2029 2053 11
2000 2062 2056 2035 11
1909 2043 2043 1995 11
2208 2056 2019 2081 11
2079 2052 1990 2038 11
1878 2056 2017 2065 11
2152 2060 2048 2039 10
2146 2047 2032 2063 10
1890 2067 2044 2066 10
2072 2066 2043 2071 10
2216 2058 2042 2039 10
1929 2055 2064 2048 9
1957 2043 2043 2057 9
2227 2057 2037 2052 9
2020 2071 2050 2065 9
1915 2059 2048 2053 9
2199 2062 2056 2059 8
2100 2051 2043 2042 8
1897 2059 2045 2030 8
2114 2050 2031 2008 8
2170 2046 2012 1975 8
1897 2055 2055 2070 7
2018 2044 1987 1998 7
2256 2094 2066 2044 7
1981 2080 2078 2128 7
1963 2073 1952 2051 7
2224 2065 2033 2113 7
2033 2047 2001 2032 7
1877 2031 2018 2002 6
2173 2055 2069 2067 6
2120 2058 2039 2041 6
1887 2045 2036 2018 6
2085 2041 2046 2032 5
2200 2066 2062 2055 5
1916 2051 2036 2027 5
2018 2052 2017 2002 5
2249 2095 2028 2061 4
1971 2061 2046 2049 4
1946 2061 2053 2049 4
2219 2055 2038 2055 4
2058 2058 2041 2081 4
1872 2045 2037 2060 4
2158 2046 2022 2026 4
2135 2037 2042 2023 3
1858 2042 2054 2023 3
2028 2005 2008 2003 3
2255 2097 2105 2088 3
1927 2076 1993 1999 3
2011 2073 2109 2154 3
2246 2064 2007 2063 3
1993 2072 2070 2125 3
1923 2063 2025 2070 3
2226 2061 2038 2029 2
2096 2059 2060 2060 2
1873 2057 2047 2055 2
2158 2061 2047 2041 2
2173 2063 2063 2056 2
1887 2055 2061 2060 2
2078 2073 2004 2052 1
2210 2045 1956 2037 1
1955 2071 1982 2068 1
1971 2054 2037 2072 1
2251 2079 2125 2091 1
2030 2065 2103 2063 1
1884 2031 2042 2028 1
2171 2039 2004 2019 1
2077 2039 2038 2048 1
1871 2049 2093 2044 1
2107 2034 2075 2026 1
2183 2064 2041 2043 1
1909 2052 2053 2062 1
2047 2067 2103 2068 1
2225 2063 2144 2067 1
1966 2076 2057 2054 1
1964 2065 1967 2048 2
2238 2075 1860 2049 2
2037 2059 1914 2045 2
1889 2048 1992 2060 3
2173 2048 2214 2093 3
2133 2068 2209 2058 3
1880 2048 2096 2021 4
2096 2046 1944 2022 4
2188 2055 1924 2039 5
1912 2053 1956 2030 5
2016 2047 1982 2019 6
2246 2078 2022 2034 7
1989 2059 1966 2047 7
1938 2046 1919 2045 8
2205 2051 2137 2067 8
2066 2066 2263 2126 9
1906 2073 2237 2083 10
2184 2082 2053 2073 10
2181 2083 2137 2082 11
1918 2098 2243 2155 12
2099 2079 2103 2056 13
2219 2089 1983 2063 14
1933 2072 2071 2102 14
1986 2069 2121 2104 15
2232 2060 1986 2044 16
1995 2034 1812 2004 17
1887 2023 1987 2014 18
2173 2032 2150 2066 19
2061 2048 2001 1995 20
1881 2040 1713 1932 21
2140 2036 1780 2003 22
2162 2040 2054 2027 23
1853 2028 2200 2082 24
2039 2045 2179 2044 25
2213 2063 1978 2062 26
1926 2061 2175 2087 27
1962 2080 2271 2129 28
2229 2075 2346 2129 29
2025 2088 2054 2078 30
1925 2069 1675 1952 31
2226 2081 1613 1967 32
2141 2106 2048 2125 33
1904 2070 2060 2090 34
2111 2042 2043 2014 35
2142 2043 1935 1966 36
1841 2024 2187 2045 37
2003 2030 2320 2091 38
2189 2007 2067 2063 39
1942 2041 1883 2002 41
1966 2064 1994 2065 42
2275 2083 2209 2102 43
2073 2053 2157 2050 44
1926 2045 1878 1988 45
2179 2049 1805 1999 46
2115 2060 2143 2124 47
1883 2064 2385 2169 48
2119 2073 2160 2117 49
2216 2081 1637 1931 50
1903 2065 1741 2025 51
2013 2062 2100 2085 53
2208 2040 2299 2116 54
1984 2064 2130 2086 55
1951 2061 1944 1996 56
2218 2078 2083 2067 57
2075 2066 2276 2102 58
1886 2053 2126 2065 59
2143 2062 2081 2089 60
2125 2051 1859 1999 61
1931 2083 1910 2067 62
2135 2118 2273 2183 63
2243 2093 2441 2166 64
1959 2085 2231 2101 65
2028 2059 1745 1976 66
2197 2066 1634 1966 67
2000 2047 1764 1987 68
1922 2018 2084 2022 69
2154 2016 2079 2040 70
2052 2028 1931 1964 71
1851 2029 2068 2062 72
2144 2034 2130 2082 73
2135 2053 2197 2128 74
1892 2070 2260 2067 75
2036 2037 2121 2072 75
2197 2033 2053 2035 76
1939 2015 1718 1927 77
1939 2004 1650 1896 78
2184 2024 2148 2071 79
2000 2042 2076 2047 80
1850 2014 1934 1950 81
2209 2065 1831 1941 81
2124 2074 1986 2076 82
1867 2080 2147 2091 83
2130 2041 1712 1968 83
2175 2031 2041 2121 84
1835 2047 2650 2167 85
2088 2113 2865 2335 86
2267 2114 2067 2033 86
2035 2104 1430 1935 87
2020 2131 1935 2059 88
2301 2147 2398 2218 89
2099 2143 2494 2231 89
1943 2071 1941 2028 90
2184 2035 1805 1903 91
2075 2027 1804 1960 91
1825 2010 1785 1967 92
2053 1993 1873 2047 93
2181 2027 1687 1984 93
1829 1997 1852 1978 94
1948 1993 2245 1992 95
2237 2042 2373 2073 95
2021 2124 2079 2165 96
1980 2109 1925 2163 96
2231 2062 2285 2115 97
2064 2070 2451 2057 98
1890 2093 2091 2067 98
2189 2074 2070 2117 99
2193 2072 1854 1976 99
1840 2025 2047 2056 100
2060 2060 2145 2069 100
2215 2048 1928 2038 101
1856 2010 1559 1915 102
1919 1996 1877 2018 102
2254 2030 1902 2016 103
2032 2063 2344 2086 103
1979 2125 2357 2175 104
2229 2041 1724 1936 104
2075 2103 2433 2276 105
1891 2099 2402 2139 105
2193 2068 1449 1846 105
2120 1967 1456 1802 106
1851 2042 2373 2219 106
2034 2085 2428 2176 107
2242 2084 2250 2180 107
1902 1985 1929 1865 108
1978 2015 2173 1972 108
2233 2117 2197 2106 109
2025 2097 1721 2004 109
1933 2017 1526 1858 110
2206 2064 2033 2033 110
2126 2115 2492 2164 111
1927 2092 1872 2089 111
2127 2010 1546 1896 112
2086 1918 2075 2155 112
1839 1957 2292 2064 113
2024 2066 2200 2011 113
2168 2006 2209 2089 114
1892 1883 1695 1872 114
1877 1766 2025 1996 115
2271 2181 2285 2113 115
2069 2223 2100 2120 116
1913 2214 1723 1978 116
2128 2070 1884 1939 117
2282 2293 2257 2182 117
1906 2321 2062 2113 117
2187 2167 2268 2196 118
2233 2001 2097 2067 118
1827 1947 1862 1901 118
1953 1991 1919 2017 119
2283 1974 2047 2139 119
2013 2021 2098 2105 119
1910 2010 2063 2039 120
2255 2015 2045 2028 120
2062 2036 2095 2063 120
1835 2021 2010 2049 120
2188 2051 1927 2016 120
2138 1992 1927 2013 120
1849 2104 2115 2122 121
2061 2070 2110 2107 121
2232 2047 2102 2094 121
1874 2042 2034 1992 121
2004 2080 2126 2173 121
2248 2057 2035 2020 121
2007 2076 2153 2079 120
1925 2064 2139 2073 120
2219 2072 2062 2058 120
2088 2065 2032 2069 120
1869 2047 1983 2000 120
2144 2037 1984 2019 120
2197 2056 2011 2066 120
1848 2056 2019 2047 120
2094 2052 1975 2019 120
2255 2062 2007 2053 119
1897 2042 1919 2057 119
1932 2031 1863 1967 119
2269 2096 2124 2097 119
2038 2087 2147 2089 118
1933 2105 2330 2188 118
2222 2103 2254 2144 118
2071 2070 2032 2021 117
1854 2061 2113 2053 117
2111 2054 2048 2066 117
2217 2090 2047 2072 116
1914 2066 2091 2075 116
2022 2067 1977 2030 115
2230 2052 1924 2002 115
1952 2047 1985 2031 115
1920 2038 2006 2034 114
2215 2062 2013 2050 114
2030 2043 1962 2007 113
1840 1986 1584 1795 113
2188 2037 2037 2061 112
2159 2116 2381 2242 112
1871 2107 2356 2197 111
2147 2095 2107 2073 111
2231 2072 1934 1997 110
1885 2069 2048 2069 110
2038 2099 2149 2131 109
2278 2075 1978 2034 109
1982 2067 2021 2027 108
1893 2049 2071 2031 107
2212 2023 1945 1979 107
2055 2047 1984 2023 106
1862 2049 2041 2063 106
2190 2052 1958 2036 105
2153 2056 1995 2043 105
1869 2031 1897 1959 104
2068 2059 2081 2087 103
2216 2070 2114 2103 103
1881 2033 2018 2091 102
1979 2076 2177 2089 101
2237 2062 2177 2094 100
1992 2061 2181 2080 100
1903 2053 2100 2077 99
2221 2056 1958 2018 98
2076 2081 2010 2049 98
1878 2072 1997 2038 97
2178 2066 1968 2031 97
2186 2056 1956 2020 96
1884 2038 1862 1943 95
2058 2045 2021 2051 95
2207 2043 2178 2120 94
1944 2071 2169 2124 93
2019 2077 1993 2068 93
2253 2059 1898 2015 92
2051 2077 2063 2057 91
1889 2060 2207 2119 90
2182 2062 2244 2106 90
2093 2054 2114 2049 89
1871 2057 2038 2040 88
2127 2060 1988 2031 88
2213 2081 1992 2049 87
1907 2070 1984 2034 86
2079 2095 2025 2061 85
2254 2057 1959 2015 85
1944 2033 1998 2050 84
1880 2011 1933 1988 83
2208 2030 1971 2019 82
1984 2043 2136 2158 82
1915 2035 2106 2079 81
2166 2034 2097 2063 80
2134 2041 2004 2005 80
1871 2066 2083 2073 79
2057 2035 2110 2073 78
2197 2053 2083 2072 78
1939 2090 2028 2031 77
2012 2087 1989 2048 76
2267 2078 2029 2053 76
2006 2071 2057 2047 75
1910 2047 2014 2009 75
2199 2042 1957 2001 74
2069 2030 1877 1957 73
1837 2026 1956 1997 73
2124 2047 2037 2061 72
2202 2072 2046 2096 72
1879 2057 2031 2090 71
2106 2073 2056 2058 70
2210 2053 2192 2083 70
1901 2054 2290 2117 69
1944 2037 2198 2097 68
2232 2075 2086 2075 68
2015 2060 1992 2035 67
1939 2063 1984 2035 67
2236 2063 1984 2033 66
2083 2044 1962 2012 65
1856 2036 1976 2013 65
2100 2029 1955 2015 64
2154 2047 1992 2034 64
1925 2069 2037 2060 63
2040 2052 2016 2047 63
2248 2065 2048 2068 62
1911 2032 1960 2011 62
1963 2050 1915 2005 61
2221 2080 2032 2083 61
2031 2070 2107 2088 60
1899 2062 2223 2131 59
2172 2058 2161 2070 59
2139 2080 2081 2057 58
1883 2082 2137 2092 57
2137 2069 2126 2070 57
2197 2078 2091 2073 56
1873 2065 2013 2041 56
2115 2083 2001 2052 55
2272 2101 2028 2077 55
2019 2090 2007 2052 54
1954 2058 1971 2032 54
2203 2043 2000 2046 53
2034 2052 2035 2061 53
1857 2035 2029 2038 52
2151 2033 2007 2026 52
2123 2050 1993 2036 51
1866 2053 2006 2048 51
2106 2031 2040 2060 50
2194 2042 1996 2038 50
1886 2036 1964 2027 49
1999 2050 1995 2063 49
2227 2045 2147 2068 48
1967 2048 2236 2085 47
1967 2080 2190 2066 47
2203 2055 2069 2041 46
2085 2069 2032 2056 46
1894 2063 2015 2053 45
2111 2033 1978 2015 44
2178 2062 2005 2049 44
1901 2073 2022 2059 43
2065 2053 2011 2045 43
2255 2074 2046 2079 42
1961 2094 2058 2072 42
2003 2082 2074 2095 41
2256 2063 2060 2068 41
1988 2046 2035 2047 40
1904 2051 2034 2049 39
2206 2066 2059 2061 39
2087 2040 2029 2051 38
1881 2067 2050 2053 38
2157 2082 2059 2090 37
2203 2099 2067 2088 37
1877 2045 2027 2017 36
2064 2074 2076 2065 35
2206 2058 2050 2055 35
1950 2080 2052 2066 34
1968 2061 2031 2044 34
2246 2096 2058 2068 33
2064 2077 2064 2050 32
1898 2061 2051 2053 32
2191 2060 2046 2062 31
2126 2047 2025 2047 31
1862 2037 2015 2029 30
2099 2028 2037 2041 30
2186 2054 2055 2051 29
1865 2036 2033 2033 29
2001 2042 2024 2044 28
2227 2047 2027 2045 28
1951 2049 2044 2053 27
1943 2045 2058 2050 27
2227 2057 2053 2037 26
2063 2070 2054 2060 26
1885 2054 2040 2045 25
2163 2047 2040 2030 25
2146 2071 2070 2098 25
1860 2037 2001 2038 24
2063 2031 2004 2050 24
2245 2092 2058 2090 23
1911 2065 2015 2033 23
2023 2084 2089 2099 23
2242 2050 2034 2036 22
1995 2065 2052 2049 22
1916 2056 2061 2040 22
2247 2081 2061 2048 21
2095 2062 2079 2069 21
1868 2059 2042 2053 21
2139 2055 2065 2093 20
2171 2051 2024 2057 20
1862 2043 2013 2023 20
2072 2070 2048 2067 19
2259 2079 2052 2073 19
1919 2042 2028 2046 18
1963 2050 2045 2046 18
2252 2059 2045 2050 18
2015 2063 2058 2049 17
1906 2072 2072 2075 17
2205 2067 2035 2041 17
2098 2049 2029 2038 16
1873 2059 2025 2028 16
2147 2081 2092 2096 16
2151 2027 1988 1976 16
1889 2062 2088 2099 15
2042 2053 2027 2079 15
2260 2093 2061 2118 15
1942 2044 2036 2077 15
1942 2051 2040 2038 15
2232 2076 2091 2080 14
2025 2049 2020 2047 14
1872 2052 2009 2017 14
2204 2059 2042 2057 14
2145 2080 2076 2080 13
1904 2063 2058 2061 13
2107 2058 2046 2054 13
2187 2066 2050 2057 13
1923 2067 2056 2055 13
2012 2047 2038 2042 12
2214 2057 2024 2027 12
1971 2066 2055 2072 12
1937 2048 2031 2021 12
2236 2061 2032 2061 12
2068 2065 2094 2049 12
1907 2067 2115 2147 12
2168 2069 2021 2043 12
2123 2049 2016 2064 12
1885 2054 1983 2032 12
2068 2043 2023 2031 12
2202 2069 2064 2077 11
1913 2051 2021 2019 11
1984 2037 2039 2047 11
2232 2058 2046 2045 11
1979 2048 2050 2058 11
1918 2059 2037 2027 11
2213 2053 2047 2046 11
2065 2052 2037 2034 10
1864 2052 2012 1989 10
2131 2048 2019 1975 10
2163 2067 2089 2148 10
1875 2050 2048 2072 10
2075 2074 2016 2052 10
2232 2079 2059 2082 10
1923 2072 2023 2029 10
1966 2050 2029 2088 9
2238 2060 2017 2038 9
1989 2047 2057 2038 9
1910 2063 2073 2066 9
2274 2131 2033 2075 9
2110 2073 2053 2068 9
1871 2064 2043 2049 9
2159 2071 2051 2041 8
2178 2061 2042 2042 8
1891 2059 2056 2039 8
2039 2032 2032 2042 8
2248 2067 2071 2059 8
1928 2048 2041 2047 8
1928 2048 2039 2058 7
2234 2051 2023 2031 7
2025 2057 2023 2012 7
1881 2060 2083 2075 7
2214 2077 1998 2041 7
2122 2063 2049 2102 7
1876 2065 2032 2064 7
2106 2043 2025 2020 7
2196 2058 2058 2078 6
1904 2055 2041 2050 6
2011 2059 2041 2055 6
2259 2070 2041 2046 6
1969 2053 2042 2043 6
1909 2042 1987 2029 6
2217 2052 1967 2027 6
2066 2058 1928 2029 6
1895 2066 1984 2062 6
2171 2056 2034 2051 6
2143 2053 2101 2070 5
1874 2061 2146 2084 5
2072 2057 2151 2102 5
2209 2061 2095 2053 5
1919 2061 2013 2027 5
1981 2061 1989 2061 5
2259 2077 2044 2063 6
1998 2045 2167 2073 6
1932 2057 2144 2040 6
2206 2052 2024 2009 6
2086 2056 1943 2017 6
1877 2056 1961 2052 6
2137 2056 2051 2040 6
2159 2063 2110 2109 6
1898 2061 2079 2059 7
2060 2056 2089 2087 7
2219 2069 1997 2039 7
1935 2057 1992 2044 8
1955 2051 2124 2079 8
2242 2069 2200 2084 9
2039 2063 2091 2034 9
1919 2051 1941 1993 10
2231 2081 1910 2065 11
2124 2067 1829 2021 11
1899 2066 1768 2044 12
2149 2065 1781 2015 13
2177 2054 2148 2117 13
1896 2060 2387 2131 14
2005 2047 2405 2101 15
2226 2060 2318 2097 15
1933 2059 2184 2047 16
1932 2053 2040 2040 17
2224 2063 1946 2039 18
2037 2052 1713 2009 19
1900 2038 1811 2035 20
2190 2064 2127 2057 21
2137 2079 2217 2085 22
1883 2074 2025 2024 23
2110 2057 1943 2057 24
2215 2071 1942 2028 25
1916 2079 2221 2110 26
2023 2065 2009 2064 27
2239 2066 2124 2083 28
1978 2065 2101 2047 29
1931 2072 2103 2056 30
2223 2065 2017 2025 31
2121 2122 1789 2026 33
1901 2079 1822 2041 34
2166 2060 1837 2024 35
2116 2019 1607 1989 36
1831 2013 2057 2027 37
2055 2047 2051 2003 38
2185 2029 2458 2039 39
1891 2019 2797 2207 41
1945 2027 2673 2113 42
2250 2072 2000 1970 43
2009 2087 1479 1894 44
1951 2047 1767 2072 45
2218 2029 2257 2199 46
2107 2068 2386 2170 48
1900 2091 2065 2080 49
2198 2130 1865 2071 50
2173 2081 1757 2072 51
1911 2077 1955 2097 53
2049 2052 1944 2009 54
2191 2035 1944 1993 55
1925 2027 1951 1975 56
1926 2034 2236 2127 57
2163 2021 2364 2070 59
1985 2038 2301 2072 60
1920 2061 1807 1953 61
2172 2065 1628 2005 62
2087 2051 1888 2047 63
1875 2044 2281 2069 64
2099 2047 2521 2154 65
2168 2041 2097 1978 66
1903 2051 1731 1939 67
2039 2043 1875 2023 68
2264 2112 2225 2166 69
2033 2128 2135 2181 70
2040 2140 1805 2111 71
2265 2090 1845 2002 72
2054 2064 2067 2055 73
1877 2032 2175 2003 74
2144 2037 2054 2032 75
2074 2025 2129 2055 76
1811 1990 2314 2063 77
2083 2033 2022 2008 78
2185 2052 1805 2021 78
1887 2045 1885 2051 79
2015 2024 2300 2102 80
2213 2056 2334 2038 81
1967 2069 2098 2019 82
1966 2049 1877 2019 83
2288 2115 1458 2028 83
2085 2138 1873 2169 84
1852 2033 1898 2037 85
2208 2062 2404 2105 86
2149 2047 2509 2103 87
1888 2038 1734 1933 87
2080 2031 1891 1969 88
2179 2043 2274 2062 89
1855 2020 2431 2071 90
1960 2048 2071 2064 90
2254 2032 1464 1946 91
1959 2047 1887 2042 92
1857 1998 1857 1933 92
2205 2028 2177 2075 93
2077 2082 2463 2213 94
1874 2080 1930 1985 95
2165 2047 1828 1976 95
2159 2015 1941 1951 96
1893 2092 2214 2184 97
2043 2068 2158 2100 97
2259 2048 1769 1993 98
1913 2061 2061 2041 99
1991 2072 2092 2078 99
2228 2061 1793 2020 100
2040 2071 2093 2043 101
1871 2065 2535 2137 102
2249 2112 1950 2048 102
2097 2014 1757 1958 103
1840 2039 2024 2051 104
2103 2038 2120 2014 104
2269 2122 1953 2096 105
1917 2081 1863 2091 105
2084 2122 2560 2168 106
2283 2100 2206 2104 107
1910 1990 1093 1731 107
1921 2037 1757 2061 108
2309 2148 2600 2296 109
2070 2123 2418 2162 109
1965 2121 1878 2001 110
2237 2002 2162 2112 110
2128 2071 2309 2061 111
1799 1999 2003 2056 111
2063 2016 1515 1883 112
2189 2048 1765 2045 112
1882 2067 2314 2187 113
2020 2094 2130 1998 113
2211 2064 2355 2188 114
1973 2026 1661 1826 114
1862 1984 2012 1931 115
2259 2128 2469 2344 115
2079 2039 1927 1955 115
1889 2059 2115 2173 116
2179 2070 2119 2065 116
2117 2016 1564 1852 117
1892 2096 2001 2090 117
2095 2136 2709 2403 118
2232 2115 2176 2077 118
1905 2076 2374 2169 118
2009 2046 1768 1914 119
2187 1973 1685 1800 119
1933 1991 1711 1923 120
1958 2096 2180 2199 120
2201 2063 2298 2159 120
2105 2157 2621 2319 121
1841 1986 1439 1750 121
2158 2003 1629 1903 122
2122 2016 2376 2198 122
1910 2141 2651 2272 122
2023 2006 1574 1815 123
2263 2069 1818 2040 123
1907 2061 1979 2056 123
1953 2046 1925 1992 123
2245 2059 2083 2067 123
2051 2109 2110 2107 124
1893 2065 1990 2060 124
2211 2042 1815 1966 124
2130 2075 2215 2145 124
1857 2053 2250 2130 124
2124 2051 2097 2055 124
2223 2083 2031 2113 124
1874 2063 2032 2091 124
2041 2073 2059 2063 124
2260 2065 1996 2001 124
1936 2038 1957 1977 123
1934 2057 2145 2072 123
2268 2084 1968 2025 123
2038 2060 1923 2041 123
1877 2069 2012 2085 123
2225 2064 2051 2077 123
2155 2079 2188 2087 123
1851 2076 2137 2105 122
2134 2082 2088 2052 122
2236 2092 2178 2135 122
1877 2063 2086 2052 122
1999 2025 1983 2014 122
2257 2059 1939 2015 121
1901 2071 2087 2075 121
1967 2080 2144 2078 121
2243 2059 2017 2038 120
2086 2049 1847 1991 120
1844 2053 1986 2033 120
2163 2044 1937 1998 119
2134 2043 2007 2068 119
1819 2059 2053 2058 119
2093 2073 2141 2113 118
2207 2078 2118 2096 118
1900 2062 2080 2061 117
2008 2062 2065 2047 117
2256 2058 2078 2032 116
1955 2036 1970 1962 116
1907 2075 2100 2069 115
2207 2076 2080 2068 115
2078 2073 2158 2104 115
1881 2065 1961 2020 114
2137 2041 1848 1976 113
2180 2051 1972 2034 113
1855 2056 2140 2117 112
2043 2053 2082 2070 112
2241 2059 1960 2056 111
1941 2056 1983 2053 111
1951 2036 1968 2000 110
2207 2053 2135 2069 109
2040 2073 2200 2142 109
1909 2093 2149 2123 108
2249 2081 2117 2116 107
2135 2066 2009 2019 107
1887 2070 2048 2032 106
2094 2038 2042 2028 106
2203 2063 2132 2080 105
1882 2038 1994 2032 104
1998 2035 2006 2067 104
2215 2037 1921 2001 103
1933 2049 1923 1987 102
1984 2100 2160 2125 102
2244 2099 2119 2127 101
2082 2079 2019 2062 100
1891 2015 1768 1927 99
2127 2010 1883 1987 99
2110 2043 2222 2132 98
1873 2059 2298 2134 97
2104 2086 2222 2117 97
2232 2083 1981 2027 96
1929 2059 1956 2043 95
1999 2051 2089 2058 94
2252 2059 2129 2075 94
1953 2047 2094 2055 93
1912 2043 2031 2043 92
2203 2034 1958 2006 91
2051 2023 1952 1993 91
1837 2015 1849 1980 90
2127 2033 1963 2012 89
2127 2048 2058 2073 88
1883 2043 2043 2036 88
2079 2056 1987 2067 87
2221 2063 1936 2024 86
1967 2082 2146 2090 85
1967 2051 2235 2097 84
2225 2058 2189 2073 84
1997 2050 2058 2047 83
1883 2041 1953 2029 82
2209 2058 2047 2074 81
2104 2071 2104 2078 80
1881 2062 2063 2064 80
2144 2064 2033 2058 79
2204 2075 1933 2030 78
1884 2075 1847 2033 77
2067 2080 1821 2047 76
2248 2074 1960 2049 76
1970 2050 2128 2039 75
1978 2060 2255 2074 74
2258 2080 2229 2099 73
2008 2060 2167 2079 73
1899 2035 2094 2053 72
2145 2016 2018 2004 71
2165 2087 2025 2079 70
1863 2050 2033 2057 69
2118 2069 2074 2068 68
2173 2018 1952 2004 67
1841 2001 1813 1977 67
2006 2054 1953 2048 66
2241 2073 2019 2055 65
1968 2057 2093 2063 64
1944 2052 2045 2049 63
2208 2032 1943 2013 62
2039 2043 1962 2030 61
1866 2048 2018 2047 60
2161 2031 2137 2077 60
2149 2070 2204 2104 59
1897 2083 2122 2070 58
2097 2086 2080 2065 57
2235 2085 2005 2086 56
1914 2056 2098 2059 55
2035 2081 2041 2078 54
2263 2072 1963 2043 54
1993 2069 2025 2069 53
1928 2054 2151 2080 52
2210 2068 2184 2068 51
2078 2061 2063 2038 51
1867 2047 1938 2029 50
2119 2027 1953 2031 49
2160 2055 2041 2063 49
1898 2076 1988 2040 48
2060 2039 1946 2027 47
2263 2096 1969 2079 47
1935 2059 2116 2069 46
1995 2073 2163 2084 45
2252 2069 2156 2083 45
2005 2053 2096 2055 44
1896 2060 1982 2030 44
2189 2045 2002 2043 43
2096 2061 2049 2064 43
1877 2057 2095 2068 42
2115 2032 2100 2036 42
2165 2070 2060 2048 41
1881 2057 1999 2042 41
2063 2060 2000 2053 40
2234 2066 2039 2063 40
1948 2063 2029 2058 39
1986 2079 2046 2077 39
2212 2061 2032 2056 38
2058 2070 2043 2074 38
1893 2056 2033 2054 37
2180 2052 2041 2044 37
2130 2050 2051 2049 36
1857 2035 2043 2039 36
2109 2067 2051 2066 36
2214 2058 2063 2065 35
1893 2066 2045 2054 35
2032 2066 2053 2065 34
2219 2039 2026 2043 34
1961 2053 2048 2050 33
1916 2046 2030 2040 33
2236 2041 2035 2037 33
2045 2053 2033 2047 32
1890 2062 2053 2053 32
2177 2060 2049 2063 31
2150 2066 2050 2056 31
1873 2051 2042 2045 30
2083 2063 2051 2049 30
2212 2053 2049 2053 30
1907 2056 2039 2062 29
1992 2052 2044 2059 29
2241 2062 2051 2064 29
1997 2071 2061 2066 28
1935 2076 2081 2091 28
2219 2059 2037 2055 28
2105 2081 2052 2072 27
1882 2057 2021 2043 27
2157 2057 2041 2079 27
2173 2058 2051 2052 26
1881 2054 2072 2053 26
2056 2053 2032 2040 26
2226 2071 2065 2102 26
1935 2056 2004 2025 25
1971 2058 2038 2049 25
2232 2058 2040 2049 25
2017 2061 2040 2043 24
1897 2049 2035 2059 24
2210 2068 2052 2059 24
2103 2057 2038 2041 24
1867 2055 2056 2051 23
2117 2045 2043 2029 23
2183 2056 2055 2077 23
1899 2062 2029 2040 23
2036 2047 2031 2035 22
2219 2040 2027 2036 22
1951 2064 2053 2072 22
1944 2057 2039 2062 22
2247 2074 2027 2062 21
2044 2059 2043 2049 21
1901 2073 2072 2075 21
2188 2068 2033 2033 20
2126 2064 2059 2038 20
1870 2054 2057 2059 20
2106 2062 2050 2076 19
2206 2064 2050 2069 19
1903 2049 2024 2037 19
2008 2047 2017 2022 18
2221 2061 2065 2079 18
1973 2053 2032 2062 18
1959 2081 2045 2052 17
2218 2064 2029 2038 17
2067 2068 2064 2082 17
1879 2043 2024 2015 17
2153 2056 2084 2081 16
2133 2048 2020 2035 16
1899 2065 2056 2070 16
2083 2056 2021 2046 15
2202 2058 2075 2064 15
1923 2053 2055 2067 15
1982 2056 2042 2046 15
2226 2048 2017 2019 14
1992 2053 2031 2031 14
1914 2046 2039 2018 14
2198 2053 2073 2063 13
2089 2065 2034 2061 13
1874 2050 2027 2025 13
2141 2061 2053 2099 12
2169 2067 2023 2062 12
1875 2049 2031 2043 12
2067 2067 2028 2042 12
2218 2064 2069 2076 11
1924 2048 2052 2045 11
1978 2055 2063 2054 11
2227 2060 2030 2044 10
2023 2068 2040 2060 10
1914 2068 2067 2077 10
2190 2058 2037 2041 10
2111 2080 2067 2080 9
1883 2059 2013 2012 9
2116 2050 2076 2073 9
2195 2056 2040 2036 9
1903 2069 2096 2096 8
2023 2042 1995 2029 8
2233 2058 2073 2097 8
1970 2079 2024 2077 8
1936 2050 2037 2042 8
2221 2044 2059 2051 8
2051 2061 2049 2041 7
1889 2058 2053 2051 7
2190 2063 2032 2080 7
2165 2104 2078 2099 7
1863 2049 2027 2029 7
2104 2069 2068 2072 7
2212 2066 2013 2026 7
1887 2038 2023 2048 7
1981 2045 2036 2032 6
2222 2045 2045 2036 6
1995 2073 2051 2055 6
1925 2059 2032 2059 6
2219 2060 2005 2041 6
2087 2070 2022 2065 6
1853 2031 2003 2049 6
2171 2070 2064 2080 6
2167 2066 2047 2063 6
1872 2060 1988 2021 6
2078 2058 1933 2022 6
2225 2074 1962 2061 6
1914 2054 2117 2072 6
2000 2067 2100 2076 6
2238 2057 2138 2047 6
1992 2063 2050 2048 6
1908 2055 2087 2062 6
2213 2061 2142 2079 6
2078 2063 2061 2050 6
1883 2059 1999 2058 6
2152 2057 2134 2083 6
2174 2061 2213 2077 6
1901 2057 2226 2061 6
2051 2061 1989 2017 7
2229 2065 1846 2021 7
1934 2054 1856 2036 7
1979 2080 1948 2055 8
2229 2063 2047 2084 8
2037 2070 2016 2066 8
1908 2059 2048 2043 9
2191 2066 2144 2045 9
2073 2057 2097 2058 10
1915 2083 2046 2058 10
2136 2066 1915 2037 11
2221 2076 1904 2047 11
1951 2062 2082 2068 12
2008 2056 2040 2120 13
2230 2069 2153 2098 13
1959 2053 2216 2094 14
1933 2045 2101 2015 14
2212 2043 2077 2020 15
2033 2048 1942 2045 16
1869 2034 2027 2047 16
2167 2068 2230 2139 17
2131 2073 2098 2065 18
1861 2050 2168 2063 19
2081 2046 2011 2017 19
2211 2058 1867 2007 20
1917 2063 1763 2000 21
2011 2061 1810 2025 22
2254 2067 2099 2079 23
2008 2051 2148 2072 24
1919 2052 1991 2028 25
2216 2066 1939 2028 25
2085 2069 2088 2053 26
1852 2047 2351 2124 27
2133 2051 2250 2070 28
2145 2043 2088 2089 29
1872 2055 1882 2050 30
2075 2062 1864 2004 31
2220 2074 1985 2082 32
1907 2036 2027 1993 33
1967 2041 2007 2016 34
2257 2088 2204 2095 36
2048 2103 2235 2151 37
1961 2120 2141 2095 38
2240 2110 1939 2062 39
2133 2087 2153 2131 40
1877 2067 2364 2162 41
2148 2040 2091 2088 42
2166 2030 1600 1934 44
1861 2038 1529 1908 45
2016 2037 2024 2040 46
2218 2048 2345 2131 47
1978 2070 2243 2123 48
1998 2091 1889 2028 49
2233 2077 1688 1989 51
2015 2043 2019 2031 52
1855 2003 2404 2071 53
2128 2021 2483 2089 54
2087 2035 2060 1975 55
1874 2034 1855 1947 57
2119 2082 1774 2065 58
2201 2070 1917 2088 59
1942 2078 2056 2119 60
2030 2060 2164 2048 61
2185 2056 2249 2065 63
1984 2064 2153 2089 64
1905 2012 1736 1973 65
2183 2027 1713 1947 66
2059 2068 1898 2017 67
1901 2050 2302 2094 68
2179 2076 2544 2224 69
2160 2053 2332 2080 70
1913 2073 1955 2043 71
2100 2086 1694 1949 73
2248 2112 1744 2091 74
1959 2069 1749 2021 75
2024 2081 2107 2067 76
2219 2093 2417 2134 77
1985 2092 2301 2138 78
1871 2027 1995 1987 79
2143 1972 1845 1937 80
2063 2022 2108 2071 81
1868 2011 1767 1952 82
2141 2033 1559 1919 83
2134 2033 1921 1965 83
1829 2040 2440 2146 84
2054 2074 2494 2153 85
2236 2065 1941 2009 86
1931 2036 1814 1959 87
1987 2060 2189 2155 88
2250 2059 2063 2095 89
2021 2081 1718 1992 90
1913 2025 2015 2036 91
2213 2103 2638 2228 91
2084 2092 2161 2045 92
1851 2044 1616 1891 93
2157 2047 1656 1958 94
2189 2057 2274 2116 95
1884 2105 2448 2168 96
2076 2081 2113 2086 96
2267 2073 1921 2033 97
1892 2021 1861 1950 98
1911 2015 1755 1918 99
2195 2012 1921 2023 99
2008 1988 1962 1973 100
1809 1971 2090 1945 101
2157 2033 1964 2035 101
2164 2070 2086 2106 102
1895 2094 2154 2137 103
2163 2090 2284 2089 103
2203 2079 2123 2075 104
1836 2056 1741 1976 104
2002 2049 2119 2240 105
2289 2067 2094 2106 105
1973 2108 2238 2151 106
1988 2069 1997 2058 106
2263 2070 1998 2024 107
2081 2048 2317 2030 107
1822 2031 1966 1920 108
2129 1983 1530 1807 108
2145 1990 1538 1949 109
1833 2032 2064 2143 109
2069 2069 2251 2186 110
2193 2091 2495 2222 110
1936 2135 2681 2268 110
2039 2098 2117 2047 111
2228 2000 1626 1816 111
2001 2041 1969 2021 112
1894 2029 2047 2099 112
2197 2088 1713 1976 113
2091 2060 1854 2056 113
1907 2067 2228 1983 114
2126 2063 2664 2203 114
2159 2027 1802 1946 115
1886 2022 1807 2015 115
2024 2042 2088 2059 116
2243 2095 2132 2110 116
1925 2008 1779 1900 116
2012 2057 1802 1952 117
2246 2087 2495 2221 117
1996 2076 2124 2032 118
1883 2003 1328 1879 118
2207 2043 2193 2208 119
2139 2117 2391 2084 119
1855 2064 2030 1978 119
2152 2075 2070 2067 120
2166 2014 1698 1927 120
1866 2073 2318 2248 120
2047 2089 2157 2055 121
2263 2057 2043 2036 121
1945 2096 2136 2109 121
1901 2037 1943 1987 122
2220 2028 1898 1986 122
2028 2041 2018 2025 122
1863 2064 2144 2119 122
2197 2049 1883 1965 123
2116 2012 1786 1905 123
1854 2047 2041 2052 123
2081 2039 2080 2064 123
2216 2040 1969 2008 123
1869 2044 2017 2055 123
2047 2082 1984 2039 123
2227 1995 1838 1970 123
2019 2105 2137 2089 123
1908 2021 1948 2007 123
2262 2081 2146 2091 123
2091 2095 2232 2221 123
1881 2091 2164 2169 123
2195 2088 2218 2138 123
2175 2073 2065 2021 123
1852 2048 2110 2023 122
2075 2048 2020 2022 122
2253 2088 1939 2027 122
1919 2069 2014 2047 122
1991 2068 2064 2053 121
2258 2074 2034 2051 121
1972 2059 1990 2033 121
1871 2033 1989 2022 121
2183 2009 1741 1879 120
2102 2058 1935 2025 120
1888 2103 2240 2195 120
2179 2089 2084 2133 119
2202 2081 2155 2125 119
1855 2045 2136 2067 118
2032 2064 2206 2084 118
2217 2064 2207 2096 117
1926 2044 1886 1960 117
1923 2031 1903 1979 116
2245 2052 2050 2044 116
2007 2056 1975 2015 115
1868 2041 1951 2010 115
2181 2053 2039 2057 114
2099 2056 2035 2050 114
1844 2041 1938 1984 113
2084 2023 1913 1994 112
2186 2068 2092 2106 112
1872 2050 1930 2022 111
2045 2086 1994 2071 110
2218 2075 2080 2122 109
2003 2088 2081 2112 109
1948 2065 2206 2126 108
2302 2071 2161 2061 107
2113 2100 2238 2112 106
1893 2096 2292 2168 105
2159 2054 2057 2061 104
2129 2031 1955 2005 104
1855 2037 1907 1980 103
2083 2042 1932 2001 102
2177 2017 1919 1984 101
1886 2029 1946 2003 100
1952 2047 1966 2041 99
2274 2092 2034 2091 99
2009 2067 1966 2032 98
1961 2051 1933 2005 97
2267 2077 1971 2018 96
2058 2037 1948 2007 95
1875 2057 2207 2128 94
2133 2038 2245 2109 93
2184 2088 2308 2150 92
1903 2096 2276 2161 91
2096 2105 2112 2122 90
2233 2072 1994 2059 89
1913 2037 1927 1989 88
1947 2031 1966 2023 87
2205 2036 1975 2008 86
1987 2038 1954 2002 85
1860 2016 1919 1988 84
2162 2026 1884 1996 83
2090 2037 1928 2018 82
1867 2025 1863 1994 81
2130 2012 1843 1940 80
2164 2044 2093 2053 79
1861 2064 2338 2186 78
2053 2071 2365 2209 77
2243 2077 2251 2153 76
1946 2051 2018 2019 75
1956 2056 2019 2024 75
2219 2061 2032 2026 74
2039 2063 2000 2027 73
1877 2042 1970 1996 72
2183 2054 1993 2025 71
2137 2068 1997 2043 70
1881 2077 1991 2051 70
2175 2115 1948 2080 69
2241 2114 1978 2100 68
1935 2066 1976 2063 67
2013 2036 2007 2019 66
2178 2019 1992 2019 65
1956 2037 2191 2045 65
1924 2046 2286 2082 64
2251 2082 2230 2081 63
2058 2057 2015 2030 62
1870 2045 1960 2031 61
2154 2051 2031 2047 60
2128 2050 2036 2055 59
1857 2050 1984 2035 59
2077 2056 2030 2070 58
2200 2061 2033 2065 57
1933 2070 2007 2063 56
2001 2051 1931 2026 55
2218 2040 1831 1987 55
1987 2050 1876 2042 54
1901 2041 2157 2085 53
2238 2076 2282 2111 52
2085 2063 2249 2075 52
1865 2040 2049 2008 51
2099 1995 1946 1984 50
2183 2069 2067 2073 50
1892 2058 2078 2075 49
2063 2068 2055 2064 48
2253 2090 2047 2080 48
1933 2070 2041 2063 47
1990 2070 2076 2070 46
2243 2061 2077 2061 46
2034 2080 2042 2051 45
1911 2073 1988 2049 45
2197 2067 2014 2060 44
2110 2065 2029 2053 43
1943 2097 2020 2076 43
2126 2056 2023 2055 42
2163 2062 2045 2061 42
1924 2069 2092 2065 41
2027 2050 2081 2065 41
2234 2083 2080 2075 40
1961 2049 2025 2049 40
1953 2055 2011 2041 39
2240 2061 2035 2065 39
2018 2052 2031 2055 38
1887 2021 2017 2025 38
2150 2029 2015 2024 37
2151 2065 2032 2052 36
1892 2074 2036 2067 36
2123 2077 2094 2090 35
2207 2061 2131 2063 35
1905 2073 2118 2067 34
2066 2103 2111 2085 34
2226 2063 2019 2051 33
1992 2071 2033 2064 33
1915 2048 2020 2042 32
2223 2059 2024 2053 32
2072 2057 2037 2065 31
1890 2050 2021 2046 31
2158 2056 2034 2050 30
2143 2048 2032 2051 30
1840 2022 2015 2029 29
2067 2047 2034 2035 29
2221 2074 2071 2082 29
1946 2080 2043 2051 28
2010 2065 2081 2086 28
2231 2058 2036 2054 27
1983 2051 2040 2069 27
1914 2055 2035 2051 27
2215 2064 2046 2046 26
2049 2025 2015 2026 26
1852 2027 1962 2027 26
2116 2032 1938 2015 26
2186 2075 1992 2072 25
1863 2028 2078 2053 25
2080 2082 2148 2070 25
2225 2064 2142 2062 25
1933 2056 2107 2045 24
1947 2043 2080 2045 24
2227 2047 2052 2039 24
2016 2061 2020 2040 24
1902 2054 2001 2042 24
2219 2089 2053 2083 24
2155 2098 2047 2057 23
1889 2077 2083 2108 23
2142 2069 2043 2067 23
2163 2035 2000 2035 23
1906 2067 2023 2054 23
2033 2060 2029 2067 23
2252 2083 2046 2078 23
1959 2050 2037 2037 23
1942 2055 2050 2063 22
2208 2041 2022 2039 22
2034 2036 2028 2049 22
1863 2029 2019 2036 22
2175 2049 2024 2015 22
2133 2065 2067 2057 22
1863 2039 2027 2020 21
2082 2051 2017 2029 21
2223 2082 2079 2099 21
1909 2056 2015 2048 20
2032 2064 2059 2087 20
2230 2047 2015 2043 20
1961 2039 2035 2037 19
1888 2036 2021 2043 19
2229 2071 2061 2047 19
2064 2049 2069 2047 18
1883 2062 2025 2025 18
2147 2055 2040 2051 18
2141 2039 2004 2015 17
1872 2055 2048 2048 17
2053 2057 2036 2044 17
2245 2089 2078 2076 16
1949 2076 2071 2095 16
1975 2063 2037 2045 16
2248 2076 2031 2059 15
1995 2046 2036 2046 15
1917 2051 2057 2080 15
2203 2059 2001 2062 15
2101 2051 2039 2059 14
1875 2031 2024 2040 14
2122 2045 2031 2035 14
2166 2051 2035 2046 13
1896 2058 2049 2054 13
2038 2044 2051 2036 13
2225 2066 2111 2077 12
1922 2039 2005 2030 12
1957 2050 2015 1996 12
2237 2076 2113 2145 12
2012 2045 2018 2018 11
1886 2059 2026 2023 11
2213 2080 2044 2093 11
2117 2059 2067 2064 11
1907 2076 2039 2076 10
2108 2050 2040 2049 10
2196 2059 2039 2023 10
1896 2055 2028 2053 10
2025 2050 2055 2066 9
2236 2069 2065 2097 9
1983 2079 2046 2047 9
1946 2054 2044 2038 9
2220 2059 2059 2035 8
2058 2063 2049 2060 8
1869 2038 2015 1986 8
2165 2062 2071 2057 8
2143 2062 1989 2011 8
1902 2079 2069 2110 7
2097 2065 2020 2077 7
2223 2074 2011 2032 7
1910 2046 2062 2019 7
2018 2079 2052 2067 7
2245 2078 2053 2082 6
1970 2070 2045 2023 6
1894 2022 2013 1980 6
2212 2052 2025 2053 6
2077 2059 2079 2106 6
1869 2034 1973 2020 5
2134 2047 2054 2048 5
2143 2041 2029 2039 5
1864 2036 2022 2033 5
2051 2042 2027 2043 5
2211 2053 2039 2051 4
1914 2047 2030 2050 4
1957 2040 2033 2061 4
2244 2076 2041 2050 4
2015 2060 2026 2044 4
1914 2061 2036 2017 4
2213 2069 2001 2050 4
2113 2067 1978 2060 4
1876 2060 1895 2028 3
2122 2045 1944 2062 3
2187 2051 2079 2090 3
1889 2054 2122 2051 3
2046 2072 2107 2052 3
2231 2052 1995 2034 3
1961 2059 2045 2101 3
1955 2067 2258 2098 3
2230 2069 2321 2097 3
2043 2067 2200 2046 4
1901 2060 1993 2017 4
2192 2069 1888 2026 4
2131 2057 1972 2062 4
1883 2061 2088 2073 4
2102 2063 2079 2053 5
2193 2063 2059 2036 5
1913 2059 2014 2047 5
2008 2056 2067 2070 6
2228 2063 1895 2042 6
1988 2063 1847 2041 7
1947 2057 1929 2059 7
2218 2079 2122 2090 8
2069 2063 2217 2082 9
1890 2067 2057 2035 9
2173 2074 1955 2037 10
2170 2091 2131 2105 11
1953 2128 2197 2155 12
2125 2087 2150 2082 12
2247 2096 2170 2123 13
1903 2030 2160 2027 14
1980 2054 2089 2066 15
2223 2066 1834 2013 16
2027 2071 1701 2006 17
1941 2044 1935 2056 18
2189 2044 2330 2073 19
2067 2065 2363 2121 20
1862 2041 2006 1991 21
2145 2054 1719 1976 22
2149 2040 1745 2012 23
1869 2027 1928 2023 24
2029 2038 2160 2145 25
2209 2061 2179 2080 26
1934 2053 2227 2003 28
1944 2040 2126 1983 29
2211 2041 1951 2012 30
2009 2046 1871 2023 31
1902 2063 1973 2105 32
2217 2071 2069 2058 34
2138 2069 1878 1965 35
1907 2074 1832 1991 36
2116 2059 2301 2152 37
2163 2036 2426 2179 39
1845 2045 2216 2066 40
1978 2037 2072 2012 41
2213 2047 2161 2098 42
1976 2048 1898 2019 44
1937 2052 1512 1946 45
2211 2048 1575 1962 46
2059 2042 2324 2102 48
1884 2052 2622 2162 49
2201 2089 2312 2055 50
2143 2081 1931 2067 51
1894 2076 1827 2061 53
2082 2042 1946 2033 54
2240 2072 1750 2013 55
1896 2033 1404 1967 56
1995 2049 2078 2044 57
2209 2029 2586 2197 59
1993 2064 2583 2002 60
1920 2073 2343 2095 61
2195 2060 1873 2030 62
2070 2054 2027 2069 63
1878 2050 2018 2029 64
2160 2056 1821 2040 65
2159 2090 1980 2089 67
1887 2078 2047 2033 68
2100 2071 2023 2037 69
2223 2060 1430 1887 70
1947 2067 2003 2027 71
1991 2055 2538 2191 72
2211 2048 2534 2091 73
2060 2105 2284 2126 74
2017 2169 2274 2301 75
2286 2161 1903 2019 77
2131 2061 1733 1917 78
1861 2014 1912 2020 79
2076 2035 2059 2146 80
2156 2085 2047 2144 81
1867 2000 1548 1851 82
2035 1970 1732 1892 83
2195 2031 2183 2029 84
1898 2004 1977 1965 85
1956 2009 2158 1962 86
2176 2040 2799 2311 87
1991 2023 2207 2100 88
1847 2006 1855 1995 89
2163 2017 1578 1873 90
2103 2023 1696 1912 91
1826 2001 2042 2028 91
2091 2052 1960 2008 92
2177 2037 2323 2136 93
1908 2104 2589 2263 94
2026 2037 1802 1948 95
2302 2091 1855 1990 96
1981 2115 2354 2245 97
1965 2106 2127 2092 98
2255 2128 2125 2101 99
2084 2047 1255 1878 100
1902 2037 1677 1935 101
2214 2059 1993 2104 102
2113 2037 2024 1961 102
1868 2075 2678 2279 103
2104 2051 2271 2105 104
2207 2021 1605 1954 105
1886 1993 1588 1875 106
2004 2085 2354 2255 106
2207 2029 2331 2098 107
1980 2102 2649 2169 108
1879 2075 2324 2077 109
2261 2124 2254 2126 110
2061 2054 1640 1903 110
1859 2021 1636 1902 111
2191 2071 2035 2087 112
2104 1994 1867 1942 113
1841 2008 1842 1996 113
2100 2059 1989 2061 114
2240 2110 2427 2253 115
1936 2085 2106 2148 115
1928 1951 1341 1808 116
2253 2021 1785 1938 117
1954 2034 2288 2026 117
1891 2034 2176 1974 118
2266 2121 2240 2266 118
2083 2080 2144 2107 118
1830 2065 2014 2078 119
2135 2013 1888 1899 119
2192 2087 2240 2115 119
1860 2083 2234 2139 120
2051 2066 2055 2060 120
2256 2027 1854 1928 120
1935 2049 2035 2015 120
1964 2085 2174 2126 121
2224 2029 1975 2011 121
2037 2055 1795 2001 121
1869 2044 1868 2032 121
2184 2034 2103 2033 121
2149 2069 2186 2118 121
1880 2073 2092 2086 121
2099 2055 1926 2051 121
2201 2026 1662 1893 121
1875 2029 1995 2051 121
2036 2124 2538 2261 121
2257 2117 2397 2192 121
1998 2095 2245 2136 121
1941 2039 1743 1915 121
2201 2035 1813 1976 121
2005 2079 2110 2080 121
1926 2067 2097 2071 121
2212 2078 2143 2085 120
2190 2077 2078 2070 120
1913 2062 2029 2044 120
2070 2053 1992 2028 120
2194 2060 1976 2031 119
1920 2020 1870 1958 119
1995 2064 2019 2056 119
2225 2055 1835 1999 118
1996 2103 2123 2185 118
1894 2059 2234 2103 118
2265 2095 2348 2129 117
2077 2076 2264 2091 117
1856 2061 1983 2025 116
2145 2048 1949 2018 116
2171 2067 2029 2059 115
1880 2070 2056 2048 115
2044 2059 2061 2071 115
2237 2066 2001 2050 114
1895 2013 1737 1889 114
1924 2023 1917 2011 113
2226 2067 2207 2140 113
2013 2078 2205 2140 112
1936 2077 2094 2107 112
2233 2050 1824 1980 111
2137 2051 1963 2021 110
1844 2050 2115 2105 110
2113 2072 2130 2026 109
2208 2096 2202 2107 109
1882 2069 2170 2058 108
2036 2054 2029 2046 107
2247 2051 1797 1982 107
1929 2050 1903 2005 106
1943 2062 2177 2125 105
2271 2061 2163 2080 105
2035 2067 2196 2097 104
1863 2037 1941 1973 103
2148 2022 1829 1947 102
2161 2098 2158 2160 102
1924 2080 2092 2117 101
2161 2097 2143 2143 100
2257 2053 1988 2069 99
1890 2061 1998 2069 99
2017 2096 2120 2075 98
2301 2113 2117 2107 97
2037 2106 2099 2074 96
1961 2116 2157 2121 96
2205 2065 2100 2062 95
2068 2049 1959 2015 94
1846 2024 1909 1991 93
2138 2039 2003 2023 93
2156 2061 2004 2070 92
1863 2040 1967 2038 91
2033 1996 1809 1961 90
2157 1967 1865 1909 89
1853 1993 2048 1995 88
1928 2016 2222 2088 87
2191 2035 2306 2145 86
2013 2068 2216 2126 86
1951 2082 2101 2067 85
2232 2065 1958 2029 84
2088 2055 1937 2011 83
1857 2031 1979 2006 82
2157 2070 2027 2037 81
2195 2087 2017 2062 81
1950 2092 1979 2059 80
2058 2069 1985 2041 79
2226 2067 2004 2050 78
1945 2066 2035 2044 77
1947 2049 1965 2050 76
2233 2074 1914 2047 75
2065 2089 1975 2080 75
1891 2045 2142 2079 74
2185 2067 2327 2105 73
2080 2014 2226 2057 72
1835 2023 2062 2048 71
2054 2017 1987 2016 70
2161 2021 2046 2018 69
1854 2009 2037 1999 68
1974 2038 1980 2005 67
2285 2072 1975 2034 66
1999 2067 1999 2043 66
1978 2070 1986 2041 65
2224 2063 1969 2044 64
2059 2065 1993 2045 63
1849 2021 1904 2021 62
2155 2031 1830 2002 62
2127 2040 1984 2062 61
1855 2040 2156 2059 60
2064 2031 2325 2064 59
2223 2083 2239 2094 58
1952 2093 2129 2096 57
1993 2066 2039 2073 57
2243 2059 2021 2061 56
1973 2033 1991 2011 55
1908 2046 2081 2063 54
2211 2060 2087 2066 54
2119 2095 2073 2085 53
1858 2056 1987 2034 52
2152 2060 1995 2042 52
2151 2045 1990 2030 51
1908 2091 2032 2062 50
2057 2051 2017 2050 50
2287 2102 2061 2088 49
1929 2047 2011 2044 49
1917 2028 2003 2015 48
2226 2056 2031 2048 47
1963 2015 2031 2011 47
1918 2057 2056 2058 46
2197 2068 2023 2047 45
2154 2090 2090 2095 45
1896 2083 2088 2075 44
2195 2117 2147 2113 43
2209 2100 2108 2080 43
1931 2088 2050 2079 42
2047 2058 2016 2066 41
2220 2061 2066 2084 41
1963 2066 2091 2072 40
1948 2048 2065 2047 39
2209 2047 2038 2043 38
2032 2051 2019 2045 38
1890 2053 2025 2043 37
2160 2046 2020 2043 36
2118 2044 2013 2045 36
1838 2022 2002 2020 35
2094 2053 2035 2047 35
2216 2083 2055 2067 34
1902 2039 2022 2033 33
2010 2061 2039 2054 33
2218 2062 2043 2056 32
1987 2057 2044 2061 32
1937 2051 2045 2053 31
2195 2044 2037 2044 31
2063 2053 2043 2035 30
1893 2059 2041 2047 30
2106 2025 2011 2014 29
2154 2056 2047 2037 29
1878 2037 2033 2026 29
2065 2051 2039 2045 28
2226 2068 2039 2026 28
1943 2061 2081 2078 27
2001 2084 2039 2073 27
2241 2081 2051 2094 27
2030 2081 2044 2101 26
1918 2056 2024 2049 26
2197 2070 2077 2095 26
2103 2064 2043 2062 25
1884 2059 2039 2045 25
2133 2057 2047 2036 25
2206 2094 2091 2077 25
1911 2063 2075 2059 24
2061 2073 2091 2089 24
2228 2069 2047 2048 24
1945 2059 2069 2073 24
1979 2073 2025 2037 23
2233 2065 2042 2060 23
2030 2063 2066 2111 23
1877 2033 2021 2008 23
2184 2053 2075 2077 22
2139 2071 2045 2088 22
1828 2023 2001 2046 22
2144 2077 2049 2077 22
2207 2053 2038 2047 21
1882 2041 2033 2040 21
1983 2022 2015 2038 20
2208 2037 2032 2034 20
1959 2056 2052 2051 20
1949 2070 2061 2063 19
2249 2072 2046 2042 19
2067 2075 2066 2069 19
1898 2100 2094 2092 18
2211 2082 2093 2083 18
2189 2098 2111 2111 18
1920 2095 2053 2068 18
2100 2068 2049 2075 17
2206 2057 2019 2035 17
1883 2018 2014 1993 17
1959 2023 2032 1987 17
2196 2024 1982 2019 17
1954 2033 2023 2058 16
1917 2051 2031 2087 16
2180 2035 2015 2028 16
2082 2049 2041 2051 16
1928 2093 2073 2086 16
2155 2088 2056 2065 16
2175 2063 2061 2065 15
1914 2071 2067 2075 15
2036 2038 2021 2018 15
2221 2079 2049 2047 15
1937 2055 2052 2053 15
1982 2058 2053 2087 15
2223 2066 2028 2058 14
2022 2071 2034 2070 14
1905 2038 2022 2031 14
2173 2042 2038 2041 14
2093 2055 2040 2047 14
1834 2021 2006 1999 14
2128 2051 2052 2032 14
2181 2066 2075 2098 14
1914 2067 2044 2054 14
2043 2060 2040 2044 14
2236 2065 2055 2055 14
1977 2066 2079 2080 14
1955 2052 2038 2049 14
2218 2065 2033 2062 14
2049 2072 2049 2054 14
1902 2058 2038 2060 14
2163 2049 2033 2053 14
2115 2047 2034 2064 14
1901 2055 2039 2048 14
2097 2049 2037 2047 14
2203 2067 2057 2054 14
1912 2055 2040 2056 14
2015 2050 1990 2039 14
2225 2065 1939 2037 14
1996 2070 1899 2047 14
1930 2045 1998 2079 14
2207 2058 2188 2096 14
2056 2062 2183 2050 14
1881 2047 2068 2008 14
2159 2060 1903 2038 14
2160 2066 1944 2059 14
1876 2051 2043 2055 14
2087 2078 2231 2064 14
2215 2075 2250 2092 14
1918 2056 2299 2098 14
1983 2048 2123 2055 14
2237 2064 1975 2015 14
1999 2061 1859 2006 14
1916 2056 1854 2035 14
2213 2059 2016 2082 15
2097 2066 1981 2066 15
1875 2061 1971 2058 15
2147 2061 2042 2031 15
2167 2061 2162 2118 16
1874 2043 2162 2064 16
2043 2050 2154 2076 17
2229 2064 2141 2074 17
1945 2059 2080 2035 17
1983 2067 1912 2017 18
2253 2081 1855 2019 18
2023 2067 1952 2036 19
1920 2078 2192 2116 20
2198 2062 2127 2083 20
2125 2066 1931 2027 21
1874 2054 1915 2030 21
2118 2053 2044 2057 22
2181 2059 2165 2091 23
1898 2066 2087 2100 23
2037 2080 1900 2019 24
2229 2055 1841 1994 25
1954 2067 2124 2073 25
1939 2051 2283 2101 26
2216 2065 2141 2047 27
2047 2068 1957 2056 28
1884 2063 1887 2053 29
2149 2048 2197 2109 29
2128 2040 2258 2079 30
1864 2053 2145 2043 31
2072 2045 1892 1996 32
2219 2051 1949 2015 33
1906 2039 2104 2056 34
2021 2046 2104 2061 35
2233 2054 1937 2015 36
2007 2066 1755 1977 37
1927 2057 1919 2031 38
2215 2064 2100 2051 40
2072 2076 2384 2149 41
1890 2076 2263 2102 42
2150 2075 2093 2047 43
2162 2073 1861 2023 44
1906 2053 1805 2006 45
2058 2049 1918 2083 46
2226 2073 2064 2096 47
1984 2094 2104 2096 48
2000 2073 2074 2055 49
2218 2053 2001 1955 51
2006 2029 2023 1990 52
1898 2054 2259 2130 53
2177 2062 2192 2112 54
2076 2069 1971 2082 55
1873 2046 1939 2040 56
2139 2053 1949 2081 57
2191 2072 2063 2049 58
1941 2067 2127 2050 59
2039 2030 1953 1919 60
2197 2048 2119 2031 61
1985 2084 2273 2143 62
1975 2087 1821 2090 63
2229 2092 1758 2026 64
2023 2031 2035 2099 65
1865 2034 2291 2051 66
2205 2087 2483 2156 67
2165 2136 2118 2079 68
1935 2125 1981 2087 69
2119 2074 1840 2067 70
2158 2038 1960 2055 71
1844 1987 2037 2023 72
2040 2031 2050 1984 73
2214 2040 2205 2077 74
1981 2084 2113 2054 75
1912 2014 1975 2008 75
2173 2019 1739 1961 76
2045 2045 1568 2002 77
1902 2045 1972 2024 78
2152 2063 2487 2152 79
2120 2036 2469 2081 80
1828 2025 1824 1974 81
2076 2025 1606 1903 81
2233 2072 1998 2101 82
1963 2078 2410 2131 83
1999 2096 2090 2056 84
2229 2049 2005 2016 85
2039 2105 2242 2104 86
1953 2118 2304 2141 86
2225 2097 1884 2072 87
2073 2029 1436 1873 88
1833 1985 1801 1939 89
2090 2053 2644 2275 90
2176 2064 2275 2123 91
1869 2019 1594 1888 91
2021 1999 1753 1874 92
2199 2058 2381 2153 93
1934 2050 1791 2012 94
2061 2109 2075 2168 94
2275 2143 2511 2200 95
2098 2120 2323 2127 96
1900 2060 2024 2021 97
2226 2058 1711 1984 98
2172 2120 2147 2153 99
1887 2127 2393 2216 99
2128 2067 1687 1928 100
2163 1971 1532 1807 101
1839 1989 2162 2044 102
1968 1999 2155 2018 103
2214 2001 1434 1934 103
1965 2059 1794 2011 104
1979 2145 2445 2224 105
2259 2075 2031 2064 106
2003 1978 1939 1952 106
1848 1989 2190 2075 107
2219 2176 3026 2402 108
2210 2184 2773 2239 109
1873 2079 1678 1857 109
2079 1976 1251 1740 110
2201 2021 1785 1989 111
1904 2037 1951 2117 112
2014 2062 2076 2146 112
2223 2017 1923 1851 113
1941 2023 2183 1942 114
1911 2092 2377 2082 114
2220 2067 2211 2133 115
2033 2008 1643 1925 116
1863 2019 1827 2041 116
2095 1984 1594 1995 117
2145 2098 1837 2072 118
1838 1996 2019 2026 118
2133 2138 2654 2257 119
2249 2070 2075 2010 119
1949 2092 2275 2184 120
2015 2111 2095 1951 120
2156 2015 2392 2204 120
2033 2088 2265 2065 121
1900 2017 1721 1935 121
2228 2113 2275 2120 122
2101 2096 2221 2082 122
1860 2062 2117 2079 122
2132 1996 1546 1941 123
2176 2016 1559 1878 123
1842 1980 1778 1885 123
1974 1928 1727 1903 124
2261 2110 2393 2160 124
1934 2067 2117 2080 124
2008 2121 2286 2201 124
2239 2019 1688 1989 124
2041 2071 2072 2072 124
1857 2014 2136 2007 124
2206 2067 2037 1975 124
2178 2123 2311 2179 124
1885 2107 2048 2036 124
2125 2106 2085 2145 124
2222 2067 2039 2034 124
1868 2019 1934 1965 124
2004 2057 2166 2089 124
2247 2051 2041 2009 124
1959 2016 1737 1963 124
1914 2054 1970 2043 124
2234 2061 2159 2091 124
2065 2079 2197 2117 124
1880 2061 2053 2049 123
2183 2042 1936 1963 123
2138 2039 1851 2006 123
1866 2083 2221 2140 123
2101 2061 2068 2093 123
2240 2105 2254 2176 123
1906 2069 2017 2053 122
1986 2073 2048 2073 122
2267 2086 2075 2071 122
1992 2072 2144 2095 122
1902 2063 1975 2040 121
2272 2089 2002 2051 121
2090 2070 1917 2041 121
1870 2064 2101 2066 120
2168 2063 1965 2059 120
2169 2063 2076 2090 120
1850 2044 2054 2017 119
2036 2031 2155 2056 119
2195 2041 2024 1954 119
1886 2048 1957 2031 118
1985 2073 2015 2124 118
2261 2059 2129 2096 117
2021 2079 2147 2089 117
1892 2049 1879 1989 116
2187 2050 2010 2041 116
2055 2049 2155 2119 115
1897 2080 2087 2104 115
2157 2088 2171 2101 114
2201 2079 1974 2051 114
1855 2028 2005 1985 113
2011 2033 2019 1993 113
2225 2052 2045 2000 112
1941 2055 2023 2025 112
1946 2032 1853 2001 111
2219 2043 2012 2029 111
2037 2094 2209 2166 110
1911 2080 2076 2066 110
2205 2084 2088 2116 109
2148 2044 1871 1971 109
1861 2047 2053 2007 108
2108 2056 2143 2063 107
2237 2087 2203 2144 107
1926 2095 2063 2093 106
2037 2079 2028 2078 106
2252 2056 2011 2069 105
1946 2046 1969 1997 104
1905 2047 1957 2024 104
2221 2047 1962 1995 103
2079 2070 2052 2081 102
1900 2059 1814 1999 102
2152 2033 1933 2013 101
2139 2041 2108 2048 100
1849 2040 2085 2035 100
2059 2069 2272 2162 99
2212 2054 2110 2075 98
1915 2043 2153 2073 98
1995 2062 2122 2057 97
2218 2050 1996 2025 96
1979 2048 2011 2034 95
1895 2042 2031 2032 95
2208 2058 1986 2043 94
2107 2070 1946 2034 93
1881 2077 1974 2045 93
2140 2061 2007 2058 92
2169 2064 2032 2071 91
1890 2049 1994 2054 91
2065 2048 1973 2021 90
2220 2046 1967 2036 89
1928 2055 2023 2067 88
1957 2050 1976 2048 88
2218 2042 2101 2056 87
1992 2017 2172 2058 86
1853 2003 2120 2019 85
2151 2043 2107 2024 84
2118 2069 2125 2091 84
1901 2081 2133 2114 83
2131 2072 2054 2104 82
2223 2077 1958 2038 81
1901 2045 1954 2017 81
2031 2048 1989 2034 80
2231 2053 1983 2037 79
1984 2061 1995 2049 79
1942 2057 1999 2045 78
2235 2063 1985 2042 78
2053 2055 1965 2008 77
1873 2047 2017 2038 76
2177 2069 2063 2083 75
2133 2050 1988 2051 75
1857 2042 1989 2093 74
2068 2035 2073 2079 73
2210 2058 2191 2059 72
1890 2046 2251 2061 72
1973 2039 2155 2040 71
2245 2071 2033 2055 70
1975 2068 1976 2056 69
1919 2056 1995 2043 69
2208 2045 2011 2025 68
2049 2060 2014 2048 67
1886 2059 1992 2027 67
2167 2048 1994 2025 66
2197 2057 2042 2054 66
1890 2056 2009 2056 65
2049 2047 1927 2020 64
2232 2050 1937 2046 64
1930 2060 2048 2060 63
1963 2056 2154 2098 62
2241 2073 2143 2087 62
1997 2064 1951 2031 61
1869 2029 1883 1985 60
2194 2043 1993 2041 59
2096 2055 2253 2101 59
1870 2065 2213 2079 58
2142 2053 2081 2035 57
2197 2066 1973 2041 56
1912 2076 2073 2087 56
2039 2065 2099 2085 55
2240 2067 2078 2069 54
1945 2049 1987 2023 54
1941 2047 1963 2029 53
2217 2063 1970 2042 52
2044 2051 2002 2051 52
1891 2043 2004 2048 51
2177 2039 1965 2032 50
2136 2059 1995 2059 50
1869 2050 2068 2058 49
2089 2041 2072 2059 48
2216 2069 2005 2068 48
1914 2057 2085 2057 47
2031 2065 2175 2075 46
2237 2064 2265 2103 46
1990 2065 2116 2070 45
1940 2070 1971 2052 45
2217 2067 1993 2058 44
2075 2073 2054 2061 44
1887 2058 2050 2053 43
2164 2071 2039 2061 42
2157 2072 2016 2058 42
1886 2054 2017 2056 41
2072 2052 2020 2048 41
2200 2043 2023 2046 40
1953 2065 2045 2056 40
1983 2052 2033 2043 39
2233 2064 2031 2039 39
1990 2049 2035 2046 38
1911 2059 2032 2044 38
2232 2062 2046 2059 37
2099 2060 2045 2056 37
1879 2048 2042 2034 36
2106 2033 2045 2031 36
2181 2075 2064 2051 35
1889 2072 2046 2042 35
2065 2064 2051 2059 34
2235 2060 2046 2055 34
1929 2052 2037 2045 33
1982 2063 2045 2058 33
2241 2065 2049 2060 32
2026 2059 2044 2049 32
1901 2051 2027 2039 31
2190 2058 2045 2053 30
2108 2047 2040 2042 30
1872 2050 2040 2040 30
2137 2092 2065 2065 29
2193 2060 2050 2054 29
1903 2056 2039 2052 28
2034 2079 2041 2053 28
2237 2075 2055 2062 27
1957 2059 2048 2062 27
1943 2053 2046 2049 27
2214 2051 2035 2018 26
2046 2064 2082 2077 26
1894 2063 2041 2047 25
2179 2065 2053 2049 25
2131 2053 2034 2021 25
1867 2049 2071 2052 25
2081 2052 2062 2086 24
2202 2050 1981 2026 24
1896 2038 2025 2055 24
2000 2051 2024 2057 24
2237 2061 2035 2065 24
2001 2077 2049 2071 23
1933 2063 2032 2021 23
2218 2080 2059 2057 23
2081 2063 2062 2070 23
1887 2062 2053 2061 23
2166 2063 2048 2055 23
2159 2058 2050 2062 23
1880 2058 2047 2050 23
2071 2057 2041 2038 22
2219 2053 2044 2051 22
1936 2055 2040 2045 22
1982 2039 2025 2041 22
2229 2056 2038 2047 22
2018 2088 2054 2057 22
1930 2081 2052 2058 21
2187 2048 2038 2044 21
2107 2063 2053 2061 21
1887 2061 2051 2056 21
2131 2048 2031 2020 21
2199 2077 2088 2075 20
1899 2064 2090 2107 20
2040 2056 2027 2050 20
2220 2056 2039 2049 20
1947 2063 2059 2061 20
1951 2047 2006 2017 20
2228 2064 2043 2075 20
2041 2061 2043 2069 20
1891 2059 2046 2077 19
2186 2068 2029 2056 19
2127 2069 2051 2063 19
1900 2072 2056 2054 19
2111 2057 2064 2057 19
2197 2072 2063 2068 19
1903 2054 2045 2046 18
2016 2057 2046 2049 18
2227 2065 2039 2045 18
1971 2057 2041 2040 18
1931 2057 2080 2071 18
2233 2074 2051 2056 17
2053 2054 2035 2050 17
1889 2053 2033 2050 17
2164 2056 2046 2048 17
2153 2060 2041 2050 17
1881 2056 2052 2045 17
2049 2032 2008 2010 17
2288 2109 2091 2105 17
1916 2061 2028 2057 17
1990 2062 2046 2073 17
2228 2032 2015 2024 17
2001 2067 2051 2047 16
1911 2057 2039 2050 16
2222 2073 2048 2069 16
2085 2058 2025 2063 16
1869 2048 2029 2041 16
2141 2060 2052 2057 16
2173 2065 2051 2059 16
1863 2038 2025 2033 16
2059 2062 2040 2042 16
2209 2051 2055 2055 16
1955 2058 2045 2037 16
1967 2059 2060 2015 16
2239 2069 2090 2090 16
2021 2055 2043 2108 16
1896 2055 2024 2069 16
2193 2061 2019 2054 16
2115 2061 2045 2042 16
1873 2045 2047 2046 16
2112 2051 2034 2049 16
2173 2052 2030 2041 16
1917 2070 2052 2061 16
2031 2057 2033 2050 16
2214 2047 2035 2053 16
1961 2079 2045 2049 16
1939 2050 2047 2046 16
2228 2055 2034 2023 16
2056 2061 2040 2051 16
1879 2041 2038 2071 16
2167 2058 2027 2057 16
2133 2059 2056 2069 16
1874 2051 2014 2030 16
2107 2059 2046 2063 16
2193 2057 2028 2059 16
1929 2067 2040 2060 16
2011 2072 2079 2071 16
2234 2062 2047 2047 16
1969 2045 2022 2039 16
1930 2054 2045 2051 16
2226 2077 2057 2071 16
2064 2064 2050 2055 16
1901 2064 2055 2059 16
2153 2058 2043 2051 16
2151 2061 2043 2053 15
1886 2054 2043 2046 15
2079 2055 2045 2053 15
2198 2059 2044 2055 15
1951 2073 2062 2074 15
1979 2059 2040 2057 15
2231 2055 2039 2054 15
1996 2056 2026 2039 15
1914 2054 2025 2041 15
2201 2062 2043 2053 15
2117 2072 2036 2058 15
1896 2053 2016 2044 15
2105 2032 1975 2031 15
2185 2063 2051 2078 15
1882 2048 2039 2050 15
2062 2060 2056 2049 15
2239 2072 2008 2054 15
1918 2031 2043 2053 15
1971 2071 2097 2067 16
2226 2068 2046 2041 16
2041 2067 2009 2046 16
1903 2054 2049 2043 16
2185 2061 2174 2080 16
2107 2041 2152 2042 16
1874 2049 2123 2059 16
2124 2070 2078 2051 16
2207 2082 2069 2065 17
1900 2057 2018 2041 17
1995 2038 1960 2040 17
2244 2073 1992 2060 18
1997 2097 1990 2073 18
1967 2083 2003 2083 18
2229 2073 2037 2076 19
2125 2105 2129 2098 19
1899 2088 2142 2078 19
2171 2075 2009 2056 20
2200 2102 2055 2112 20
1903 2097 2153 2125 21
2104 2084 2185 2104 21
2215 2067 2103 2063 21
1947 2084 1959 2027 22
1987 2064 1910 2025 22
2243 2069 1993 2064 23
2029 2093 2069 2066 23
1909 2033 2064 2047 24
2170 2020 2008 2015 24
2031 2011 1950 1978 25
1827 2009 1914 1996 25
2096 2011 1971 2005 26
2128 2037 2057 2065 26
1870 2023 1821 1949 26
2032 2006 1807 1980 27
2207 2031 2026 2004 27
1935 2065 2337 2149 28
1949 2027 2222 2039 28
2205 2028 1965 1996 29
1973 2007 1824 1982 29
1853 2011 2016 2057 30
2149 2031 2264 2081 30
2080 2048 2224 2134 31
1914 2091 1988 2057 31
2141 2077 1822 2070 32
2205 2074 2141 2070 32
1882 2039 2349 2081 33
2033 2065 2187 2043 34
2226 2071 1864 2000 34
1987 2077 1979 2071 35
1977 2069 2129 2080 36
2227 2067 2013 2008 37
2055 2072 1676 1933 37
1911 2055 1840 2077 38
2192 2062 2078 2074 39
2110 2065 2280 2145 40
1883 2051 2157 2054 40
2085 2022 2092 1988 41
2188 2041 2091 2039 42
1917 2067 2083 2098 43
2016 2075 2020 2113 44
2240 2088 2080 2119 44
2006 2072 1913 2008 45
1944 2046 1916 1960 46
2192 2063 1997 2053 47
2073 2063 2175 2070 48
1875 2041 2183 2088 49
2169 2069 2091 2048 49
2188 2080 1906 2056 50
1900 2068 1862 2044 51
2099 2079 1989 2044 52
2213 2080 2062 2071 53
1960 2066 2167 2128 54
1990 2061 2207 2087 55
2196 2026 2113 2044 55
2009 2062 2047 2041 56
1907 2061 2082 2061 57
2192 2063 2194 2105 58
2104 2052 2152 2037 59
1870 2024 1916 2001 60
2121 2035 1759 1945 61
2167 2054 2021 2056 62
1894 2058 2186 2108 62
2027 2042 2032 2041 63
2207 2047 1780 1976 64
1943 2064 1780 2002 65
1985 2081 1978 2076 66
2227 2072 2311 2175 67
2085 2118 2356 2178 67
1937 2087 2101 1984 68
2204 2067 1934 2017 69
2140 2065 1939 2080 70
1876 2035 2010 2055 71
2089 2047 2283 2141 72
2163 2057 2326 2069 72
1877 2015 1900 1911 73
2007 2017 1787 1929 74
2215 2053 2096 2058 75
1970 2075 2291 2147 75
1933 2051 1739 1959 76
2251 2072 1866 2033 77
2086 2101 1941 2106 78
1902 2086 2049 2107 79
2161 2015 1721 1973 79
2101 1995 2005 1990 80
1800 2049 2727 2227 81
2097 2097 2808 2201 81
2210 2082 1966 1972 82
1877 1978 1380 1792 83
1944 1971 1683 1897 84
2185 2036 1859 2030 84
1997 2041 1774 1938 85
1929 2049 2015 2011 86
2210 2028 2153 2135 86
2040 2027 1778 1934 87
1891 2103 2295 2228 88
2197 2113 2671 2268 88
2179 2059 2001 2006 89
1866 2058 1965 2021 89
2085 2085 2048 2095 90
2264 2124 2483 2224 91
1981 2117 2246 2127 91
1929 1992 1408 1848 92
2215 2019 1924 1967 93
1952 2031 2565 2205 93
1889 2071 2059 2075 94
2180 2008 1243 1802 94
2093 2013 1834 1992 95
1869 2055 2638 2214 96
2149 2078 2508 2161 96
2159 2029 1271 1831 97
1855 1983 1456 1854 97
2005 2038 2415 2238 98
2225 2091 2571 2161 98
1915 2051 1999 2000 99
2004 2054 1680 1951 99
2231 2062 1911 2093 100
2031 2093 2533 2232 100
1916 2060 2168 2058 101
2176 2059 1945 2019 101
2173 2119 2309 2200 101
1883 2058 2009 2049 102
2110 2043 1911 1937 102
2179 2024 1783 1960 103
1910 2045 2040 2023 103
2011 2049 2314 2169 103
2258 2095 1756 2025 104
1983 2065 1753 1973 104
1942 2057 2172 2059 105
2181 2043 2349 2101 105
2084 2062 2138 2140 105
1865 2007 1120 1759 106
2164 2017 2073 2075 106
2151 2074 2828 2308 106
1905 2118 2733 2307 106
2089 2085 1539 1825 107
2232 2049 1668 1883 107
1927 2075 2541 2283 107
1975 2085 2528 2217 108
2303 2125 1961 2094 108
1979 2022 1517 1937 108
1888 2031 1967 1982 109
2203 2030 2010 2045 109
2069 2011 1911 1918 109
1897 2070 1885 2074 109
2102 2015 1591 1950 110
2221 2108 1878 2118 110
1844 2048 1967 2011 110
2056 2071 2849 2374 110
2264 2105 2790 2207 111
1959 2109 1724 1975 111
1902 2034 1503 1871 111
2221 2045 2275 2135 111
2001 2052 2661 2183 112
1840 1952 1714 1835 112
2176 2001 1677 1867 112
2120 2097 2271 2242 112
1864 2120 2415 2188 113
2025 2012 1679 1967 113
2266 2051 1357 1948 113
1918 1991 1953 2043 113
2027 2062 2084 1978 114
2299 2058 2279 2046 114
1972 2121 2400 2183 114
1880 2101 2509 2253 114
2296 2119 2207 2103 115
2054 1991 1254 1802 115
1823 2007 1735 1992 115
2141 2025 2342 2130 115
2124 2028 2027 1954 115
1865 2026 1988 1988 116
2099 2090 2226 2160 116
2229 2083 2255 2152 116
1893 2089 2384 2168 116
2001 2052 1859 2010 116
2196 1989 1633 1878 117
1984 2061 1925 2024 117
1903 2048 1970 2018 117
2237 2060 1794 2028 117
2054 2031 1799 2000 117
1880 2048 2095 1975 117
2169 2075 2370 2098 117
2174 2111 2463 2200 117
1890 2091 2152 2123 117
2080 2061 1912 2018 117
2224 2052 1951 2005 117
1896 2046 2005 2036 117
1987 2058 1994 2046 117
2239 2048 1979 2017 117
2006 2063 2007 2058 117
1893 2041 1879 2008 117
2235 2068 2040 2081 116
2113 2071 2113 2078 116
1892 2071 1995 1997 116
2155 2072 2027 2038 116
2207 2099 2393 2270 116
1890 2102 2221 2168 115
2038 2080 2255 2155 115
2224 2043 1901 1972 115
1913 2031 1961 1973 115
1930 2050 2082 2058 114
2192 2037 2028 2029 114
2015 2038 1993 2028 114
1871 2037 2042 2031 114
2203 2066 2054 2057 113
2127 2037 1833 1970 113
1819 2027 1785 1976 113
2128 2074 2168 2089 112
2213 2075 2233 2099 112
1916 2071 2180 2067 112
2068 2069 1809 1971 111
2227 2051 1914 2004 111
1969 2098 2397 2244 110
1935 2079 2320 2164 110
2237 2063 2096 2087 110
1995 2046 1840 1960 109
1900 2056 1985 2029 109
2205 2071 2089 2082 108
2182 2071 1996 2029 108
1886 2052 1887 2008 107
2063 2041 1966 2021 107
2203 2057 2060 2041 106
1924 2064 1983 2063 106
1990 2045 1957 2014 105
2240 2035 1834 1927 105
1970 2035 2002 2000 104
1881 2068 2305 2229 103
2239 2109 2364 2227 103
2112 2097 2319 2163 102
1879 2052 2104 2024 101
2138 2039 1965 1986 101
2143 2048 1905 2004 100
1883 2056 2020 2059 99
2059 2056 2020 2044 99
2233 2065 2018 2068 98
1931 2057 1974 2038 97
1951 2044 1984 2025 97
2250 2051 1984 2042 96
2039 2067 1913 2017 96
1932 2069 1967 2052 95
2221 2079 1921 2057 94
2099 2080 2115 2081 93
1883 2057 2197 2125 93
2123 2068 2310 2111 92
2177 2058 2202 2093 91
1866 2031 1987 2023 90
2015 2031 1823 1943 89
2205 2050 1990 2037 89
1975 2073 2205 2126 88
1942 2066 2162 2101 87
2191 2057 2062 2070 86
2037 2051 1945 2009 85
1921 2043 1952 2004 85
2181 2058 1965 2029 84
2180 2059 1896 2015 83
1849 2049 1959 2053 82
2108 2061 2089 2082 81
2206 2069 2103 2077 81
1956 2082 2050 2065 80
2021 2071 1976 2033 79
2251 2089 2076 2080 78
1973 2070 2151 2105 77
1977 2108 2297 2175 76
2233 2094 2226 2129 75
2076 2075 2022 2048 74
1861 2020 1843 1958 74
2087 1988 1969 1987 73
2147 2056 2155 2059 72
1893 2047 2167 2059 71
2048 2043 2001 2021 70
2209 2029 1919 2011 70
1879 2013 1952 1991 69
1943 2013 1965 2005 68
2177 2019 1910 1983 67
2021 2029 1872 2012 67
1902 2048 1846 2017 66
2211 2070 1999 2079 65
2102 2062 2240 2083 64
1887 2065 2337 2084 63
2120 2057 2193 2079 62
2190 2069 1910 2019 62
1870 2038 1881 2016 61
2025 2043 2056 2054 60
2205 2052 2172 2098 59
1961 2063 2189 2098 58
1973 2062 2053 2050 58
2231 2046 1990 2035 57
2023 2054 1995 2040 56
1865 2036 1968 2026 56
2252 2102 2005 2088 55
2117 2057 1987 2045 54
1877 2062 1969 2041 53
2127 2055 2065 2057 53
2175 2054 2066 2064 52
1919 2073 2103 2066 51
2027 2048 1983 2049 51
2260 2103 2088 2087 50
1994 2087 2182 2112 49
1935 2042 2117 2044 48
2259 2080 2079 2074 48
2052 2067 1980 2051 47
1899 2067 2057 2072 46
2182 2060 2098 2073 46
2134 2053 2053 2043 45
1874 2058 2015 2039 44
2076 2044 1991 2033 44
2185 2037 2025 2045 43
1900 2047 2039 2047 42
1984 2035 2023 2046 42
2266 2078 2034 2064 41
1974 2029 1997 2036 41
1924 2057 2043 2055 40
2202 2047 2069 2056 39
2095 2078 2063 2061 39
1917 2092 2062 2067 38
2146 2057 2049 2065 37
2238 2128 2112 2115 37
1889 2068 2071 2068 36
2081 2070 2062 2062 36
2233 2071 2053 2067 35
1927 2051 2043 2047 35
