-109 -5 23 30 0
217 20 14 15 0
-24 16 -2 11 0
-159 39 -10 -5 0
164 8 -9 -23 0
62 -4 7 24 0
-192 32 20 35 0
81 5 -3 -16 0
153 17 0 -53 0
-188 3 24 74 0
6 32 -28 9 0
187 9 -24 57 0
-126 -10 -28 -26 0
-93 21 1 -34 0
190 18 13 -11 0
-13 17 -3 26 0
-113 35 31 44 0
157 27 18 39 0
54 -12 -11 -36 0
-155 40 13 -8 0
85 17 -16 8 0
159 32 32 79 0
-139 10 -7 4 0
-23 13 7 -6 0
190 -2 -7 18 0
-85 7 -14 19 0
-122 -16 -13 -26 0
159 -19 0 -22 0
34 41 11 27 0
-169 -1 -45 -10 0
123 9 -34 -16 0
72 -6 24 10 0
-165 1 -41 -20 0
64 25 16 40 0
167 19 -21 -6 0
-142 -4 -22 -11 0
-74 -22 -32 -22 0
174 8 46 10 0
-55 -17 -45 -35 0
-123 23 -6 50 0
156 8 -29 22 0
25 33 14 15 0
-141 17 -9 -9 0
119 31 33 41 0
116 16 -1 41 0
-154 8 -18 -29 0
16 1 -11 -6 0
170 14 8 10 0
-122 -2 -34 -53 0
-64 12 11 7 0
158 -1 -17 -54 0
-9 45 32 127 0
-142 4 -31 -20 0
166 15 13 37 0
44 1 22 15 0
-175 32 8 1 0
83 28 29 1 0
139 27 -42 2 0
-151 21 33 94 0
-1 15 -30 19 0
144 -2 -35 -23 0
-99 8 -39 -29 0
-106 -16 2 6 0
189 15 -29 12 0
-18 11 -9 -12 0
-148 3 1 -1 0
131 -3 -5 -26 0
64 2 -25 36 0
-165 19 -27 -35 0
64 5 22 42 0
146 16 16 12 0
-158 5 8 -15 0
-34 -2 13 39 0
195 22 -12 -27 0
-78 15 1 13 0
-105 9 24 60 0
181 19 -16 50 0
11 31 0 28 0
-145 23 -29 -15 0
110 -15 -29 -81 0
95 27 61 140 0
-161 18 -23 -8 0
46 22 -1 54 0
178 29 -18 -18 0
-134 -4 -3 -39 0
-56 -17 -8 2 0
185 10 -4 2 0
-56 18 8 4 0
-129 15 -24 -96 0
228 69 44 63 0
31 8 -1 24 0
-163 1 15 71 0
91 8 -107 -37 0
105 0 16 -9 0
-191 8 -47 -58 0
36 28 -15 0 0
166 -10 -25 -35 0
-126 9 -22 2 0
-107 -18 -26 -11 0
212 21 -8 1 0
-24 9 20 12 0
-128 17 -17 -29 0
140 -20 -11 -66 0
34 19 -9 -5 0
-156 43 -39 -42 0
77 11 -29 101 0
152 -1 -23 21 0
-150 5 -8 -49 0
-59 -14 14 33 0
237 63 73 41 0
-104 -1 -61 -53 0
-78 23 -31 37 0
181 5 -11 2 0
-12 11 -16 7 0
-168 -4 -26 -47 0
165 24 44 11 0
77 10 -36 10 0
-187 9 -4 0 0
85 40 7 24 0
140 7 -21 -3 0
-164 -12 -1 -17 0
-29 5 -10 -51 0
196 22 -28 -20 0
-83 8 -6 12 0
-108 24 82 157 0
168 15 -25 -17 0
4 11 11 -23 0
-158 10 -13 20 0
120 0 -40 -66 0
91 -3 -15 16 0
-183 -21 -43 -34 0
60 33 1 55 0
144 24 -6 4 0
-159 7 14 56 0
-56 -8 7 0 0
186 31 -15 -22 0
-61 9 -11 -25 0
-136 13 0 54 0
167 26 -10 7 0
29 -10 -15 20 0
-151 32 15 11 0
103 3 -39 -30 0
124 25 40 47 0
-150 16 -26 -42 0
4 -6 -10 -23 0
168 10 13 11 0
-112 20 36 47 0
-96 -20 -75 -62 0
189 8 -9 2 0
-29 21 -1 0 0
-155 -6 -26 -33 0
169 7 0 17 0
51 19 -29 15 0
-157 29 -10 -15 0
85 28 -17 14 0
135 -1 1 -25 0
-128 30 13 49 0
-3 8 -8 -40 0
204 45 22 96 0
-83 17 -2 -13 0
-97 8 -1 59 0
159 -5 -24 -25 0
25 23 37 -15 0
-160 15 4 53 0
128 5 -17 -51 0
90 11 -15 19 0
-182 3 60 66 0
41 -7 -22 -35 0
130 -5 -5 3 0
-135 19 -11 5 0
-37 22 -1 0 0
180 9 -9 11 0
-63 0 15 -22 0
-124 0 -25 30 0
168 11 27 38 0
16 18 -12 -2 0
-153 8 -11 -3 0
115 17 7 13 0
100 26 16 71 0
-174 8 -7 40 0
41 0 -17 -53 0
177 44 47 42 0
-124 8 -29 7 0
-32 23 45 73 0
181 4 -25 16 0
-49 16 5 -5 0
-128 -1 10 -1 0
174 40 -9 15 0
47 23 -1 6 0
-143 33 5 1 0
80 -13 -38 -12 0
95 -6 -7 -18 0
-163 11 -20 4 0
28 1 -23 -18 0
173 16 19 -13 0
-124 -19 -21 -14 0
-64 32 33 -9 0
200 51 -9 -2 0
0 40 -12 64 0
-157 -3 -32 6 0
148 0 -5 4 0
51 -1 -13 -10 0
-179 -6 3 -25 0
64 -3 -3 19 0
139 9 9 -15 0
-145 18 -18 1 0
-22 -14 -5 -41 0
174 11 -21 30 0
-88 24 41 71 0
-77 35 -13 25 0
184 16 4 -16 0
-6 3 -8 -20 0
-162 11 5 16 0
148 15 7 25 0
91 13 3 6 0
-171 15 7 -1 0
54 19 -1 18 0
136 -16 -31 -99 0
-112 8 -37 16 0
-22 43 22 64 0
215 41 43 69 0
-65 -3 -35 -4 0
-137 -14 -35 -34 0
154 8 -19 -31 0
19 26 -33 48 0
-155 10 -3 -23 0
96 9 -31 54 0
112 15 -4 40 0
-173 3 -8 -2 0
10 -11 -24 -37 0
174 41 0 9 0
-129 12 -12 -9 0
-82 -11 -38 -46 0
189 7 41 19 0
-55 8 -21 6 0
-127 17 15 26 0
176 20 -18 -8 0
11 -9 15 -10 0
-155 18 -37 -14 0
95 5 16 -10 0
117 3 8 45 0
-137 21 -20 31 0
-2 4 10 61 0
183 18 14 0 0
-105 9 8 22 0
-102 -6 -12 -17 0
197 33 -3 -5 0
-28 12 -42 -29 0
-141 21 27 11 0
129 8 5 56 0
55 3 -28 -25 0
-165 21 6 -27 0
98 11 2 14 0
139 20 41 47 0
-151 23 -11 31 0
9 39 -2 22 0
196 13 36 22 0
-92 20 0 -16 0
-106 2 -29 -15 0
170 5 -23 -26 0
-10 17 -21 -8 0
-144 15 35 75 0
142 23 -10 5 0
89 4 0 -28 0
-171 1 -45 -24 0
48 11 17 22 0
168 28 57 88 0
-133 7 -26 -35 0
-49 1 7 -15 0
177 9 -8 -57 0
-53 5 -3 68 0
-106 16 15 37 0
178 6 0 35 0
8 4 -7 -29 0
-113 28 -52 -87 0
119 23 69 144 0
118 29 -6 35 0
-174 -13 -41 -54 0
29 13 14 4 0
188 25 90 43 0
-116 44 -6 65 0
-56 21 -12 9 0
180 22 -50 -24 0
-62 12 -7 -13 0
-149 -13 3 -3 0
165 15 -4 10 0
44 13 2 8 0
-181 13 -7 -9 0
96 17 32 10 0
118 8 -20 -14 0
-169 7 -12 7 0
4 -1 7 15 0
173 1 -3 -1 0
-107 21 11 -7 0
-74 22 -17 22 0
211 32 39 63 0
-28 15 13 29 0
-160 10 2 28 0
156 4 -3 -5 0
60 13 0 -2 0
-195 2 8 40 0
91 22 24 31 0
131 13 -5 10 0
-139 15 1 -5 0
-33 -1 -6 -16 0
181 2 -10 2 0
-89 22 -10 2 0
-108 -7 -9 -40 0
190 40 37 107 0
-3 8 -23 1 0
-169 1 -50 -72 0
130 13 27 66 0
83 -1 -23 -60 0
-167 26 32 116 0
56 12 -17 0 0
138 -6 -38 -24 0
-209 -47 -49 -38 0
-33 10 4 -1 0
182 10 0 1 0
-91 -15 -5 5 0
-127 -6 -42 15 0
140 -18 -49 -67 0
35 27 -19 2 0
-163 10 5 8 0
115 -1 -31 -10 0
93 3 -11 -30 0
-164 7 35 47 0
12 -8 -56 -52 0
170 5 6 37 0
-121 12 -44 -41 0
-68 12 13 12 0
172 1 -27 -17 0
-10 39 10 11 0
-160 -16 -28 -22 0
155 17 11 22 0
80 7 -1 -7 0
-168 12 13 -4 0
75 2 -37 -142 0
139 29 55 123 0
-161 -3 -22 -21 0
-18 -1 -10 47 0
203 32 4 58 0
-120 8 -6 -18 0
-114 -23 -33 -33 0
221 45 -2 39 0
-16 16 -33 -47 0
-143 37 27 81 0
147 8 -39 -29 0
68 9 -19 -21 0
-169 14 1 15 0
69 4 -5 -10 0
154 11 -2 -9 0
-171 -16 -19 -12 0
-7 26 30 39 0
175 14 -8 -37 0
-78 28 -4 0 0
-66 39 -17 -31 0
176 13 31 91 0
10 24 10 61 0
-151 10 -23 -2 0
107 -12 -19 -40 0
78 4 -28 -17 0
-166 1 -13 6 0
37 3 -19 7 0
157 16 0 8 0
-169 -23 -19 -30 0
-29 5 -5 -13 0
186 20 13 33 0
-67 16 -15 6 0
-93 41 -3 8 0
160 -3 -11 -3 0
28 14 0 9 0
-171 0 -16 -6 0
123 12 -5 6 0
94 -1 -5 -1 0
-161 23 1 9 0
29 2 -17 -2 0
169 20 4 24 0
-102 30 3 18 0
-59 10 -3 7 0
185 12 -2 10 0
-21 36 14 23 0
-129 16 3 8 0
149 14 -2 5 0
55 23 -6 4 0
-203 -9 -13 1 0
147 59 30 42 0
125 7 -4 8 0
-150 19 -9 11 0
-7 -3 -8 -19 0
188 25 9 4 0
-108 13 2 25 0
-81 10 -1 13 0
185 9 -7 13 0
-32 -1 -10 -5 0
-146 17 -9 -6 0
141 13 3 8 1
77 21 6 7 1
-177 5 -3 -3 1
55 0 1 4 1
175 40 11 18 1
-131 18 -3 2 1
-20 17 0 15 1
188 11 6 14 1
-69 8 -2 13 1
-129 -5 -27 -5 1
179 24 -2 6 2
-11 -7 -11 -1 2
-148 9 8 2 2
121 26 2 9 2
62 -13 -31 -16 2
-141 34 -3 7 3
31 7 -6 -2 3
156 22 4 13 3
-112 21 1 6 3
-66 -1 -22 -11 3
188 31 -7 12 4
-76 -7 -27 -6 4
-128 -2 -19 -1 4
173 21 -33 -1 4
37 23 -27 10 5
-200 -25 -51 -8 5
171 62 51 61 5
106 23 24 20 5
-159 16 -10 7 6
40 5 -50 -12 6
151 3 -41 4 6
-117 19 25 33 6
-67 -5 74 14 7
172 -1 58 -1 7
-42 18 26 11 7
-142 24 25 16 7
138 -3 18 12 8
43 7 -5 -2 8
-169 8 -119 -24 8
98 14 -173 -33 8
93 -17 -198 -33 9
-141 16 -63 8 9
5 15 40 21 9
175 14 79 14 9
-111 -6 100 0 10
-98 -3 136 39 10
155 4 161 54 10
10 37 120 51 11
-99 52 29 31 11
168 56 -58 29 11
107 44 -46 33 12
-174 -4 31 -3 12
68 19 121 33 12
133 7 42 -9 13
-114 28 -100 -39 13
-42 -19 -252 -73 13
107 -58 -213 -88 14
-95 -25 -162 -31 14
-144 -2 -80 -1 15
177 18 -33 31 15
16 14 91 61 15
-171 24 120 14 16
102 9 141 14 16
87 -3 106 9 17
-159 1 89 20 17
35 14 -70 -8 17
182 31 -178 -18 18
-90 37 -144 -1 18
-27 21 -30 35 19
190 32 69 45 19
-47 8 46 -3 20
-112 4 119 3 20
128 -5 137 8 20
15 -1 124 26 21
-185 -15 -22 10 21
92 11 -31 17 22
115 17 -46 4 22
-159 5 -69 -35 23
20 6 -185 -55 23
167 11 -109 -17 24
-123 3 -76 -23 24
-76 -2 -95 -28 25
189 10 -82 -10 25
-35 17 91 17 26
-150 10 252 79 26
165 41 126 41 27
61 20 -49 28 27
-141 29 -38 22 28
85 8 23 28 28
129 11 2 0 29
-154 10 -158 -49 29
-1 7 -250 -47 29
169 2 -35 -21 30
-97 4 141 53 30
-100 8 123 9 31
157 7 25 6 31
-16 8 -51 -7 32
-161 -7 50 15 32
122 -2 59 14 33
79 16 -44 -3 33
-150 16 -72 -37 33
59 5 -104 -19 34
148 20 16 43 34
-153 -5 48 11 35
-37 1 108 37 35
154 5 88 3 36
-90 -3 25 7 36
-125 -3 22 8 37
158 2 -73 1 37
16 5 -153 -15 37
-157 -2 -173 -30 38
120 13 -1 21 38
140 71 161 83 39
-104 70 29 59 39
47 32 -13 25 40
171 9 -68 -27 40
-166 -49 -37 -65 41
-113 -38 -26 -66 41
155 -13 -12 -27 42
-73 -23 36 -15 42
-144 8 84 53 42
175 48 -5 64 43
65 41 -56 39 43
-156 0 -60 -16 44
75 5 59 2 44
94 6 84 -8 45
-168 -3 -139 -35 45
29 15 -129 -1 46
188 20 3 27 46
-116 17 114 19 47
-81 -3 72 -7 47
164 -6 -21 -30 47
-39 11 -75 0 48
-146 9 -12 1 48
161 23 -33 45 49
71 23 -40 15 49
-187 1 75 25 50
101 32 41 3 50
173 44 -5 38 51
-103 54 -42 43 51
45 56 -7 27 52
189 25 71 25 52
-94 10 -38 -17 52
-90 10 -143 -13 53
197 36 47 51 53
-11 26 262 66 54
-196 -22 205 28 54
95 -27 -5 -48 55
60 -2 -161 -33 55
-183 -2 -3 4 56
36 -23 -139 -43 56
97 -35 -113 -17 56
-175 -39 -199 -90 57
-51 -20 -55 -48 57
185 15 241 95 58
-63 16 108 58 58
-114 16 -57 -26 59
178 25 -195 -50 59
11 15 10 36 60
-183 -8 118 77 60
86 -1 92 42 61
46 -19 -125 -58 61
-171 -13 -23 -50 62
31 -1 75 -12 62
181 30 112 37 62
-119 -3 -102 -22 63
-33 12 -209 -17 63
173 -1 -216 -13 64
-52 11 -33 -12 64
-129 -10 71 -30 65
145 11 227 32 65
49 28 120 31 66
-162 20 -5 34 66
94 10 -132 -4 67
120 11 -139 -24 67
-166 11 -179 22 67
10 -7 -300 -42 68
174 16 -7 15 68
-87 20 321 83 69
-67 16 212 -27 69
203 46 166 59 70
-4 29 107 105 70
-127 19 161 75 71
151 27 -29 -13 71
73 24 -249 -89 71
-174 -9 -271 -76 72
65 7 22 11 72
116 3 198 83 73
-152 11 90 22 73
-13 21 124 56 74
198 27 -117 -15 74
-84 11 -228 -37 75
-97 -8 24 6 75
170 16 241 31 76
-9 7 4 -24 77
-118 32 -240 -33 77
152 37 -126 2 78
83 44 379 161 78
-166 21 159 35 79
69 2 -488 -157 79
178 1 -378 -93 80
-136 12 203 127 80
-40 6 429 95 81
219 45 -59 40 81
-67 39 -160 -33 82
-136 6 158 59 82
165 21 465 167 83
-13 -1 -2 -27 83
-181 -13 -423 -115 84
129 -4 -43 -46 85
101 -1 181 49 85
-198 3 71 1 86
17 -10 -230 -87 86
179 1 -307 -43 87
-169 -12 19 15 87
-58 13 208 82 88
215 10 -112 -40 88
-92 -39 -515 -182 89
-131 5 125 23 89
158 26 566 202 90
-1 9 371 92 90
-158 -1 -296 -66 91
89 -25 -550 -163 91
106 20 -30 36 92
-162 14 113 19 92
-7 3 159 63 93
212 23 -5 -33 93
-113 21 188 47 94
-45 42 72 -5 94
228 16 -428 -113 95
-29 24 -115 -17 95
-180 13 319 229 95
169 30 195 72 96
72 37 -40 35 96
-158 2 -219 -146 97
67 -27 67 -20 97
92 -30 144 23 98
-148 17 -30 41 98
-39 -36 -774 -206 98
183 21 97 101 99
-98 16 539 165 99
-91 30 349 56 100
186 41 112 21 100
27 19 -322 -60 100
-131 45 -65 -7 101
151 5 -89 -55 101
111 17 -141 17 102
-174 31 76 90 102
55 37 -73 65 102
145 -9 100 -67 103
-145 5 269 28 103
-14 29 -281 -98 104
215 27 -262 -39 104
10 90 270 230 104
-142 20 329 113 105
112 -19 319 32 105
-83 -163 -971 -458 105
-217 -69 -300 -130 106
130 54 735 296 106
111 37 172 66 106
-166 -8 -749 -155 107
-17 -87 -482 -163 107
169 59 780 331 107
-110 80 495 123 108
-53 4 -171 -78 108
176 -32 -345 -161 108
-59 -11 357 63 109
-117 61 534 211 109
158 -24 -899 -274 110
-31 -102 -800 -251 110
-171 33 561 317 110
137 64 559 155 111
103 -4 -283 -81 111
-122 -13 -385 -127 111
-2 -10 245 67 112
143 20 477 135 112
-114 -15 -283 0 112
-126 -111 -660 -225 113
189 78 645 331 113
-29 87 681 163 113
-154 26 -216 -110 114
149 -24 -347 -102 114
28 -33 -245 -153 115
-180 -57 -177 -56 115
118 37 -5 51 115
153 56 331 200 116
-149 83 653 217 116
-37 33 -14 -103 117
239 -21 -635 -196 117
-130 -72 -552 -110 117
-101 41 536 178 118
206 5 190 51 118
-67 -26 -329 -153 118
-199 -92 -731 -259 119
153 38 18 48 119
64 26 388 73 119
-137 125 854 233 120
66 36 50 -20 120
128 -13 -331 -140 120
-127 54 403 288 120
1 37 121 1 121
172 -13 -195 -98 121
-88 -45 -543 -207 121
-155 -96 -348 -100 122
143 -1 335 143 122
57 69 20 25 122
-208 -14 -136 -67 122
146 21 -72 -46 123
102 38 138 84 123
-232 -33 -54 -53 123
77 24 -34 31 123
158 -33 -117 -35 123
-163 -27 -96 -57 123
-12 58 21 73 123
184 -22 -62 -15 123
-22 78 249 122 123
-184 -35 -26 -58 123
178 -12 -97 -55 123
24 2 -235 -85 123
-175 34 19 76 123
142 15 67 29 123
154 52 223 79 123
-164 28 90 34 123
11 -3 -25 -15 123
205 19 -70 0 123
-118 18 -114 -11 122
-89 15 5 -20 122
203 18 63 27 122
-35 -3 -105 -37 122
-160 20 -9 11 121
169 30 27 35 121
71 27 -112 -2 121
-211 -2 -96 -37 120
70 7 34 -11 120
156 46 264 81 120
-153 41 174 82 119
-1 45 -41 40 119
201 18 -102 -33 118
-80 38 185 74 118
-111 28 88 34 117
159 16 -23 -9 117
-25 0 -47 0 116
-167 8 -78 -27 116
129 10 -89 -24 115
104 13 -66 -14 115
-183 9 -91 0 114
50 12 -11 21 113
142 5 -102 -42 113
-134 5 -61 -11 112
-44 6 -97 -17 111
163 19 120 66 111
-58 9 44 -19 110
-105 26 111 42 109
161 22 176 98 108
33 33 57 45 107
-162 27 78 33 107
109 -4 -121 -67 106
89 12 -55 -12 105
-172 17 2 7 104
24 2 -44 -20 104
182 21 -98 -22 103
-135 8 -94 -35 102
-46 27 75 52 101
233 45 93 63 100
-7 58 -3 61 99
-63 55 -47 27 99
276 87 -84 25 98
95 49 -187 -9 97
-154 47 179 120 96
94 45 421 168 95
156 26 308 66 94
-184 13 107 11 93
-25 -45 -300 -128 92
105 -69 -235 -131 91
-200 -55 -2 -3 90
-171 -63 -52 -45 89
143 -46 -52 -38 89
-67 -54 -130 -79 88
-208 -30 -172 -62 87
118 -33 -135 -53 86
47 -23 -58 -30 85
-211 -24 -13 -18 84
64 0 55 34 83
133 7 4 -5 83
-143 2 22 7 82
-17 8 -53 0 81
200 33 -13 41 80
-24 58 82 79 79
-177 -44 31 -35 78
266 63 110 51 77
-39 -26 -18 -33 76
-145 32 -110 -25 75
142 -12 -182 -76 74
64 -29 -115 -72 73
-187 21 102 49 71
23 9 157 98 70
145 22 91 59 69
-162 -2 -35 0 68
-40 -4 -97 -18 67
169 12 -102 17 66
-33 1 -19 -13 65
-103 35 114 48 64
227 57 208 69 63
57 31 -61 -16 62
-112 97 -137 10 62
119 34 -1 22 61
137 43 192 77 60
-114 63 222 83 59
30 18 60 7 59
187 49 -50 18 58
-140 -7 -106 -23 57
-54 8 -49 1 57
173 8 -5 2 56
-57 -5 -31 -18 55
-174 -27 -136 -46 54
147 0 -59 2 54
30 -4 -33 -11 53
-209 -10 -97 -45 52
91 10 -85 -31 51
113 -2 44 11 51
-199 -25 171 9 50
-15 -11 160 12 49
143 -17 13 -30 49
-89 14 -67 -7 48
-84 3 -47 8 47
208 24 -7 56 46
-9 6 -25 17 46
-107 39 11 40 45
173 29 -33 22 44
125 63 -9 47 44
-187 -6 35 13 43
97 30 75 21 43
159 5 5 -1 42
-124 36 -42 13 41
-12 11 -53 5 41
177 -2 -23 12 40
-85 22 -13 -3 40
-83 32 -11 28 39
184 6 12 19 38
-23 -13 4 -4 38
-175 -1 31 -3 37
191 48 20 27 37
89 12 0 20 36
-161 6 73 25 36
40 0 57 21 35
130 7 -8 24 35
-159 -9 -22 -7 34
-36 3 -33 -16 34
195 16 6 3 33
-51 23 -21 -6 33
-96 11 -35 1 33
141 -14 -47 -24 32
35 27 -7 12 32
-117 43 32 35 31
95 21 10 22 31
99 20 -10 0 31
-120 24 -18 10 30
16 9 -15 1 30
170 20 11 18 30
-126 2 -4 -6 29
-112 -34 -45 -41 29
207 19 6 14 28
-31 23 17 15 28
-119 18 30 48 28
158 3 -17 -13 28
41 30 16 38 27
-182 8 -4 -9 27
82 -10 -10 1 27
181 45 21 47 26
-135 30 22 35 26
-17 -7 -33 -31 26
205 25 29 19 25
-99 2 -6 8 25
-70 44 41 69 25
158 0 -23 7 25
1 16 -23 -6 24
-177 -18 -39 -24 24
113 8 7 4 24
128 50 60 59 24
-179 11 -11 -3 23
58 23 6 35 23
155 11 -30 -15 23
-182 -24 -55 -45 23
-13 31 27 24 22
175 -6 -15 -33 22
-75 5 -3 5 22
-115 3 0 6 22
183 7 -3 14 22
-3 6 -5 4 22
-187 -28 -29 -31 21
115 8 -6 -13 21
100 10 11 18 21
-161 10 -1 -11 21
40 -1 -22 -7 21
152 -14 -30 7 20
-129 -1 -5 14 20
-66 11 -9 5 20
212 40 18 30 20
-60 -4 -20 -11 20
-183 -26 -28 -17 19
201 39 33 36 19
25 8 -43 -36 19
-155 9 58 58 19
128 31 10 31 19
101 -3 3 9 19
-176 4 -13 -32 18
19 14 -36 1 18
165 21 -14 33 18
-117 26 -27 36 18
-71 -13 -40 -24 18
171 -11 -22 -19 17
-31 15 4 13 17
-130 17 9 7 17
165 -3 -7 -11 17
70 27 -1 10 16
-176 10 0 -5 16
67 -5 -17 -17 16
136 5 -5 0 15
-174 2 -13 -13 15
-26 -5 -14 -13 15
171 4 -5 -6 15
-105 -1 -15 -9 15
-110 -3 -32 -23 14
168 2 -16 -7 14
-1 -3 14 12 14
-158 -6 -6 -27 14
138 21 11 46 14
86 22 -14 -5 14
-186 -6 -36 -19 13
101 38 37 63 13
164 16 -33 -6 13
-130 25 32 66 13
-14 28 -10 12 13
181 5 -6 10 13
-68 39 5 6 13
-112 10 -18 -15 13
177 6 -6 -21 13
-10 -19 2 25 13
-169 16 -17 11 13
118 9 -23 7 12
115 23 -24 -33 12
-183 -8 -11 -9 12
23 1 -33 -19 12
172 13 16 37 12
-136 7 -34 -15 12
-67 -5 -19 -5 12
179 -9 -5 -15 12
-36 34 18 17 11
-130 11 2 7 11
167 30 3 10 11
43 19 8 8 11
-178 8 -12 -1 11
80 -2 -2 -24 11
149 40 46 63 11
-176 -8 -9 -26 11
15 17 -8 -23 11
131 -51 -25 -44 11
-115 23 -54 -3 11
-58 34 56 79 10
201 10 -41 -64 10
-15 20 25 52 10
-148 23 -35 20 10
180 43 1 106 10
65 12 -38 -42 10
-181 0 2 10 10
69 3 9 11 9
141 7 -9 28 9
-151 1 0 -11 9
-23 -2 0 -10 9
184 17 2 24 8
-85 3 -6 3 8
-87 20 14 11 8
184 21 3 17 8
5 27 -1 20 7
-189 -21 -19 -5 7
139 22 4 12 7
95 30 -2 -15 7
-216 -17 -20 -38 7
67 9 28 -7 7
132 0 -33 -95 7
-140 7 30 3 6
-55 -16 -110 51 6
173 9 -37 -39 6
-88 0 16 23 6
-136 -27 -51 -8 6
165 21 11 96 6
15 16 -49 42 6
-189 -9 -52 -48 6
103 -11 -5 6 5
92 -7 -17 13 5
-184 -6 -17 -35 5
27 3 1 -10 4
167 12 2 10 4
-135 8 -16 -11 4
-65 6 -7 -10 4
183 23 -7 -18 4
-48 29 25 -20 3
-193 -44 -40 -55 3
242 77 76 55 3
38 8 8 -9 3
-164 19 19 -29 3
112 14 23 43 3
130 27 74 77 3
-179 23 -44 38 3
32 20 -56 54 2
126 -50 -78 -19 2
-95 43 11 83 2
-81 19 42 44 2
210 15 24 36 1
-19 12 11 27 1
-138 25 17 19 1
173 32 27 13 1
93 31 30 24 1
-163 25 13 20 1
85 22 15 11 1
144 16 5 7 0
-161 5 -6 -1 0
-14 14 16 -1 0
212 43 25 28 0
-84 21 20 21 0
-123 -21 -30 -56 0
193 19 80 57 0
-34 -8 -43 -81 0
-171 15 73 151 0
116 -31 -92 -82 0
64 -29 -65 -105 0
-201 -8 -73 45 0
40 5 -29 94 0
139 -1 -52 87 0
-155 -9 -22 -10 0
-61 -13 -8 -60 0
169 -1 -16 22 0
-84 -5 -15 -11 0
-134 -11 -11 -33 0
160 11 -13 -6 0
6 11 -9 0 0
-180 1 -17 -20 0
113 8 -4 0 0
106 17 -5 9 0
-182 1 -21 -19 0
20 15 -11 -45 0
169 6 13 16 0
-112 24 25 27 0
-34 33 31 86 0
199 20 9 26 0
-78 -13 -20 -36 0
-56 60 30 35 0
166 18 4 14 0
73 41 26 36 0
-147 20 1 25 0
119 37 14 31 0
106 10 15 14 0
-146 14 11 5 1
-1 -12 -10 -10 1
159 15 -9 -17 1
-117 0 -34 0 1
-98 -22 -36 -11 2
228 46 31 44 2
-62 -10 -43 -20 2
-140 12 -2 -7 3
158 9 -8 6 3
62 -6 -28 -13 4
-172 16 -19 -17 4
77 22 -15 4 5
176 46 25 25 5
-171 -2 -35 -15 6
-10 19 -26 0 6
235 66 9 38 6
-76 24 -20 8 7
-67 19 27 27 7
173 6 -1 19 8
1 15 -35 1 8
-124 30 -136 -2 8
134 7 -121 -6 9
140 67 99 77 9
-130 37 235 74 9
75 41 236 53 10
254 83 102 59 10
-108 42 -56 4 11
-47 27 16 36 11
251 88 68 71 11
-74 -5 173 40 12
-146 -20 66 -23 12
99 -62 -2 -62 13
-101 -111 -121 -135 13
-237 -69 -118 -77 14
31 -61 -135 -55 14
72 -18 -122 -34 15
-207 -49 -106 -25 15
-13 -21 -108 -8 15
195 42 -124 -6 16
-135 -10 -172 -43 17
-61 4 -90 -8 17
209 32 63 62 17
-42 31 98 52 18
-131 10 176 43 19
158 2 150 4 19
20 -9 16 -36 20
-188 0 -156 -76 20
97 5 -217 -52 21
120 21 -98 1 21
-183 -5 37 43 22
21 47 39 64 22
261 77 19 91 23
-107 11 42 28 24
-76 21 4 3 24
148 -12 -27 -27 25
71 75 -22 1 25
-121 34 39 59 26
198 67 95 63 26
116 25 128 50 27
-174 -3 93 -8 28
51 24 256 72 28
142 46 234 97 29
-124 26 -21 6 29
-4 20 -242 -49 30
203 38 -187 2 30
-76 30 18 56 31
-101 11 34 17 32
184 9 -58 -5 33
-10 -3 -91 -26 33
-198 -25 103 21 34
112 -1 129 11 35
116 34 75 -8 35
-191 -11 -43 -15 36
65 22 -168 -42 37
193 33 -281 -33 37
-94 50 -343 -21 38
7 48 -207 -6 39
255 96 237 155 40
-43 41 511 145 40
-110 43 496 123 41
167 12 146 -21 42
9 -3 -37 -19 42
-207 -13 -129 -49 43
77 -16 -215 -29 44
79 -17 -210 -40 45
-205 -34 -92 -66 46
-28 -50 -135 -99 46
124 -46 -131 -111 47
-169 -41 -72 -67 48
-112 -35 137 11 49
165 0 120 54 49
-52 3 -112 -19 50
-130 0 -275 -47 51
191 24 13 21 51
41 35 299 127 52
-162 36 232 81 53
92 9 13 4 54
136 16 -64 -29 54
-152 11 -129 -21 55
0 3 -225 -79 56
167 11 -110 -3 56
-127 -11 -20 -3 57
-113 -25 116 1 58
168 14 165 17 58
3 23 80 15 59
-132 10 -116 -50 60
139 -3 -104 -6 60
79 11 174 66 61
-167 27 53 35 62
43 1 -204 -33 62
131 4 -177 -55 63
-134 11 166 33 64
-24 38 257 65 64
185 23 -43 17 65
-84 -15 -559 -139 66
-115 -12 -98 4 66
167 13 335 60 67
9 12 316 48 67
-197 -5 24 -22 68
167 40 -140 -38 69
133 80 -129 7 69
-107 49 -199 67 70
102 35 -152 -13 70
168 18 58 -9 71
-157 12 298 23 72
-45 21 375 66 72
173 4 237 93 73
-84 1 177 40 74
-157 -28 -125 -55 74
148 -42 -651 -210 75
-3 -19 -210 -41 76
-198 -13 150 79 76
87 -5 -96 -25 77
122 -8 -326 -130 78
-167 12 -32 -9 78
-8 8 129 64 79
144 -10 -282 1 79
-144 -18 -273 -36 80
-20 23 302 72 81
187 48 701 192 81
19 56 230 -9 82
-157 -2 -168 -29 82
169 27 84 8 83
49 37 315 141 83
-162 8 -175 -21 84
100 -11 -473 -141 85
126 11 -285 -75 85
-159 16 85 -6 86
11 22 240 6 86
189 37 138 67 87
-144 -21 -395 -111 88
-195 -28 -282 -86 88
265 26 217 106 89
17 41 187 101 89
-98 28 -217 -6 90
151 -41 -624 -236 90
23 -31 -229 -119 91
-201 -1 459 114 91
101 38 241 74 92
131 15 201 89 92
-136 53 353 134 93
-32 24 213 61 93
221 15 -232 -69 94
-78 -9 -605 -160 94
-139 -9 -140 -34 95
159 3 284 92 95
-16 3 37 -25 96
-202 -14 -329 -97 96
163 8 -57 35 97
126 49 478 186 97
-127 34 -129 15 98
47 -1 -330 -77 98
144 -17 -49 -19 99
-168 -9 -56 -65 99
-46 2 98 12 100
192 32 342 64 100
-57 22 280 117 101
-177 -35 -150 -179 101
132 4 -114 -2 102
64 36 84 106 102
-167 42 174 103 103
131 -18 -491 -61 103
139 -30 -554 -189 104
-218 -2 195 39 104
48 45 520 198 105
171 -7 -364 -169 105
-113 -16 -87 32 106
-87 4 151 27 106
176 -37 -152 -92 107
-50 21 -37 -58 107
-114 23 238 185 107
101 -64 -277 -214 108
52 37 422 201 108
-208 20 334 100 109
121 87 175 105 109
198 90 -79 15 110
-175 -38 -719 -244 110
-42 6 -101 -33 111
203 31 428 142 111
-88 26 139 45 112
-118 -78 -844 -284 112
167 -40 -133 -93 112
-25 16 -66 51 113
-178 20 176 152 113
196 29 213 113 114
95 24 256 39 114
-197 82 745 275 114
65 -29 -1124 -331 115
80 -151 -530 -122 115
-145 20 766 228 115
-4 92 725 169 116
181 53 171 -22 116
-51 1 -373 -91 117
-133 14 102 64 117
173 67 146 92 117
30 -23 -692 -232 118
-177 -93 -754 -247 118
105 5 -40 60 118
51 15 287 135 119
-126 64 453 198 119
-3 -49 -209 -215 119
220 68 355 139 120
-183 -66 -818 -277 120
-20 49 334 317 120
200 36 102 -17 120
-95 -15 -104 -172 121
-132 28 361 64 121
177 95 187 131 121
-20 -31 -128 -39 122
-145 -1 66 15 122
95 -5 -5 -63 122
90 26 313 68 122
-170 6 -475 -179 123
-13 -43 -578 -219 123
201 -14 43 31 123
-108 33 257 124 123
-119 -84 -497 -157 124
210 -53 -689 -149 124
-46 -66 186 41 124
-97 119 609 174 124
170 63 415 96 124
58 33 -215 -123 124
-151 24 -294 -57 124
123 93 359 237 124
135 37 160 57 124
-108 22 101 24 124
-55 -50 -127 -87 124
153 -28 -141 -71 125
-86 17 62 77 125
-130 -33 -175 -74 125
163 -28 -179 -38 124
-6 6 -167 -59 124
-191 -29 -147 -88 124
142 -2 161 58 124
119 55 231 103 124
-189 -14 -225 -67 124
91 13 -57 31 124
176 16 91 -14 124
-162 26 195 96 124
-27 28 40 34 124
224 -5 -135 -73 123
-109 17 -60 25 123
-176 11 17 20 123
227 33 116 79 123
39 29 91 -1 123
-160 -3 13 -57 122
159 39 36 41 122
75 5 -197 -62 122
-199 19 32 40 122
67 33 37 71 121
202 34 7 46 121
-151 14 -45 7 121
-78 2 -117 -41 121
166 -18 -278 -121 120
-59 13 -112 11 120
-132 29 149 64 120
163 39 331 93 119
19 39 214 63 119
-223 -6 -64 -72 119
107 4 -104 0 118
104 17 -85 -1 118
-185 32 73 53 117
-2 28 112 52 117
214 43 109 59 117
-141 14 -45 -10 116
-71 -1 -188 -79 116
184 -9 -134 -36 115
-11 29 46 8 115
-132 26 99 51 115
128 11 -66 2 114
74 -5 -138 -65 114
-174 4 -71 -58 113
89 20 138 48 113
176 19 31 28 112
-173 9 -33 23 112
-33 15 -51 -16 111
205 25 65 30 111
-89 21 139 62 110
-93 15 -15 8 110
173 15 -33 -17 109
-9 18 26 26 109
-170 -5 -30 4 108
150 21 27 20 108
105 21 -41 -2 107
-144 25 -160 -39 107
62 16 -38 12 106
176 13 68 29 106
-180 -7 85 19 105
-48 -17 -25 -26 105
140 -29 -203 -62 104
-114 -24 -46 -26 104
-184 -44 -94 -72 103
232 19 105 48 102
56 56 192 120 102
-122 74 127 95 101
159 61 106 88 101
139 44 -52 -16 100
-196 -2 -107 -42 99
22 -2 -47 -6 99
167 -7 -138 -39 98
-194 -19 -141 -53 98
-50 1 19 21 97
211 14 99 23 96
-71 12 149 51 96
-93 7 -34 -19 95
151 -10 -143 -63 94
7 -32 -77 -39 94
-239 -53 -39 -38 93
74 -19 23 22 92
86 -5 -38 -41 92
-175 10 -92 -6 91
29 25 13 5 90
196 24 -26 -35 90
-136 13 63 16 89
-92 -1 136 57 88
197 14 102 67 88
-38 16 65 52 87
-140 7 -66 -17 86
165 12 -81 -23 86
45 0 -51 -10 85
-200 10 -24 -12 85
105 -8 -53 -26 84
143 -15 -187 -86 83
-118 32 -20 25 83
-19 6 44 49 82
184 22 43 43 81
-91 22 -54 -3 81
-117 -5 -180 -40 80
169 0 56 23 79
-14 11 143 58 78
-177 -6 201 46 78
128 17 61 20 77
97 26 87 49 76
-167 15 48 23 75
39 -1 -41 -28 75
157 16 -74 -14 74
-144 -3 -72 -16 74
-49 1 -77 -15 73
196 -2 -83 -32 73
-87 -18 -89 -38 72
-116 -4 -49 -10 71
146 -6 -66 -20 71
31 16 -133 -29 70
-175 -18 -89 -12 70
114 27 105 69 69
133 48 254 98 68
-135 30 137 40 67
35 20 -53 -1 67
165 8 20 28 66
-127 18 85 22 65
-82 5 135 38 65
174 15 8 3 64
-58 -3 -90 -28 64
-168 -23 -91 -40 63
185 11 -71 -19 63
40 -2 -85 -27 62
-154 -1 -142 -33 62
103 -5 -104 -20 61
128 14 -10 14 61
-151 40 85 31 60
28 24 46 18 60
192 17 -65 -3 59
-117 9 12 0 59
-94 -1 71 11 58
185 -3 60 9 58
-34 14 -29 1 57
-157 25 27 46 57
152 24 111 60 56
76 27 74 25 55
-188 17 -79 -33 55
76 1 -108 -18 54
139 10 -26 5 54
-167 8 41 16 53
-18 9 37 -1 53
194 12 17 4 52
-86 11 -2 11 52
-130 -20 -95 -22 51
222 33 -65 7 51
-3 10 -27 17 50
-170 1 21 12 50
176 23 66 44 49
91 14 -31 7 49
-165 19 -38 17 48
88 41 -72 27 48
176 23 -62 30 47
-151 11 90 39 47
-32 7 179 36 46
186 19 151 13 46
-38 39 32 22 45
-90 42 -31 30 45
202 32 -5 29 44
28 30 -33 5 44
-160 13 -57 -9 43
86 -14 -56 -18 43
87 1 -51 -26 43
-190 -10 -54 -21 42
26 8 -23 0 42
137 -19 -18 -3 41
-145 1 -29 -31 41
-4 19 -13 19 40
142 -14 -27 -23 40
-25 24 26 21 39
-134 -14 11 -12 39
109 -15 -33 -20 39
52 23 -40 8 38
-168 -3 2 17 38
77 1 50 7 37
97 -1 32 -16 37
-143 23 -18 -17 36
-1 3 -53 -20 36
174 28 7 21 35
-95 25 46 8 35
-78 7 43 0 35
187 19 5 11 34
-4 23 -14 12 34
-146 -4 -27 -1 33
191 49 18 33 33
50 -3 -26 10 33
-144 34 9 44 32
89 24 0 23 32
157 14 8 17 32
-144 12 -15 -5 31
-24 9 -9 8 31
172 5 -15 -3 31
-56 29 8 20 31
-111 12 -3 8 30
187 22 1 32 30
8 9 -12 -3 30
-183 -7 -15 -16 30
104 -2 -2 3 29
95 12 1 13 29
-173 15 1 9 29
45 3 -23 -18 29
156 16 -1 10 28
-152 24 -8 4 28
-32 16 0 7 28
194 12 -3 5 28
-71 5 -9 0 28
-127 16 -8 3 27
156 -5 -25 -15 27
18 0 -25 4 27
-148 31 3 32 27
126 20 -16 14 27
130 5 27 23 27
-169 17 55 22 27
36 11 45 17 26
183 7 18 5 26
-133 5 -8 -10 26
-95 -9 -28 -10 26
163 -12 -42 -19 26
-52 16 -18 2 26
-151 -5 -28 -12 26
175 27 3 11 26
39 6 -26 -31 26
-165 6 9 8 26
86 14 19 45 26
117 4 -39 -15 26
-170 -9 -5 0 26
-4 4 -39 -6 26
167 1 -27 21 26
-98 3 -27 29 25
-94 0 -41 -33 25
154 -6 -7 -8 25
-26 2 3 4 25
-136 13 -4 -3 25
139 21 13 5 25
65 19 14 11 25
-133 18 17 16 25
55 10 -8 -5 25
144 16 4 7 25
-149 1 -20 -12 25
-23 25 15 10 24
181 7 7 18 24
-66 24 13 22 24
-76 11 0 13 24
156 6 -17 -6 24
-12 -5 -27 -12 23
-162 -3 -24 -8 23
88 -13 -30 -19 23
82 -3 -14 -8 23
-178 0 -22 -15 23
15 -19 -29 -18 23
143 -7 -30 -23 23
-129 13 21 8 23
-101 -43 -35 -44 23
198 15 20 37 23
-65 8 -3 24 23
-117 35 -7 12 23
153 -3 -24 -23 23
10 26 22 19 22
-140 33 5 26 22
123 23 15 9 22
117 7 -10 8 22
-162 17 -2 6 22
35 10 -3 5 22
174 3 8 11 22
-129 5 -6 -10 22
-70 3 1 4 22
184 8 0 4 22
-47 10 -17 -1 22
-133 -1 -6 -5 22
151 1 -4 -1 22
50 13 8 12 22
-205 -13 -26 -12 22
76 -11 -22 -9 22
128 28 2 18 22
-169 10 -4 9 22
-13 -5 -13 -3 21
202 25 -15 15 21
-123 9 -25 3 21
-89 11 -12 10 21
194 15 -12 10 21
-19 16 -24 11 21
-158 16 -93 -4 21
138 10 -138 -13 21
105 37 -78 21 21
-159 31 -3 21 21
51 1 50 10 21
155 9 109 23 21
-167 -10 159 11 21
-35 4 191 23 21
177 4 123 -3 21
-89 10 23 -16 21
-117 6 -35 -2 21
178 15 -72 1 21
16 23 -107 -5 21
-148 11 -165 -21 21
115 3 -129 -5 21
98 5 -47 31 21
-181 10 45 43 21
45 5 32 11 21
145 -10 90 36 22
-110 32 -40 -13 22
-35 17 -53 -14 22
193 20 -89 -29 22
-67 -6 44 2 22
-129 6 122 63 22
143 6 149 31 22
28 11 41 22 23
-170 2 47 -5 23
92 21 42 24 23
127 35 24 31 23
-139 18 -41 0 24
28 19 -137 -25 24
176 16 -267 -34 24
-107 8 -318 -66 25
-60 23 -234 -15 25
155 12 83 47 25
-31 11 356 95 26
-119 27 321 56 26
158 31 83 -3 27
73 8 -182 -76 27
-167 6 -84 26 27
64 9 75 13 28
128 29 77 63 28
-152 -1 -167 -35 29
-25 -8 -90 -13 29
157 7 115 36 30
-115 5 185 20 30
-104 4 -4 -20 31
192 19 -119 -25 31
19 23 -29 29 32
-143 4 14 13 32
146 1 6 -3 33
75 6 -133 -29 34
-190 -3 -184 -23 34
39 -2 -66 3 35
141 -6 -29 -3 36
-164 -7 25 -10 36
-53 4 191 29 37
191 28 339 82 38
-90 15 179 15 38
-131 -5 -92 -61 39
178 -1 -315 -79 40
6 -5 -103 13 41
-190 -9 44 32 41
113 1 -26 40 42
87 0 -340 -62 43
-192 -3 -319 -70 44
46 -3 179 47 44
177 17 305 60 45
-135 -2 210 -2 46
-57 -1 28 -39 47
171 16 111 42 48
-75 17 75 55 49
-151 13 -248 -37 49
195 9 -290 -41 50
14 0 -103 6 51
-173 -1 32 24 52
116 16 104 29 53
112 23 96 -19 54
-158 29 176 30 54
31 15 -124 -52 55
193 19 -251 -70 56
-125 14 23 49 57
-61 8 201 70 58
163 18 296 107 59
-19 19 22 -8 60
-124 21 -167 -33 60
170 9 -288 -107 61
61 15 -158 3 62
-135 36 69 23 63
117 54 286 137 64
180 72 188 64 64
-118 35 0 56 65
-29 -3 -182 -57 66
161 3 -54 -5 67
-72 13 7 -3 67
-74 29 -63 16 68
193 24 -80 18 69
7 10 31 3 70
-169 13 238 63 70
144 29 235 112 71
80 19 10 84 72
-193 -26 -109 -89 72
-8 -49 -102 -92 73
67 -76 -202 -125 74
-199 -56 -127 -55 74
-33 9 169 79 75
150 -18 -124 -116 76
-92 -19 -106 -53 77
-179 -41 16 12 77
116 -22 76 48 78
0 -15 -282 -80 78
-170 -10 -139 -81 79
127 22 221 43 80
98 17 397 75 80
-159 16 -61 -56 81
15 -7 -424 -63 82
197 56 60 91 82
-84 41 -195 -1 83
-33 4 26 2 84
201 19 316 117 84
-49 25 282 33 85
-123 40 203 53 85
160 28 -111 -47 86
80 25 -360 -38 87
-225 -9 -38 36 87
75 -9 33 88 88
131 1 -4 13 89
-166 9 261 72 89
19 4 40 -27 90
151 -1 -163 -128 90
-100 27 -76 -5 91
-59 17 -99 32 92
227 26 -69 34 92
-44 8 389 144 93
-148 37 377 171 93
216 82 -55 31 94
102 54 -342 -117 95
-163 31 -173 -41 95
81 -1 293 84 96
115 7 -149 -18 96
-139 -5 -699 -138 97
-26 -14 -172 -39 98
185 25 316 97 98
-54 86 797 238 99
-91 37 108 10 99
185 -17 -468 -198 100
-61 -80 -154 -87 100
-214 -33 216 115 101
61 5 150 128 101
80 27 223 130 102
-175 -20 -174 -116 102
25 -50 -342 -169 103
107 -56 -544 -248 103
-217 -47 -9 -31 104
-27 -5 419 175 104
187 39 217 111 105
-29 38 -112 -25 105
-135 -31 -423 -213 106
169 -11 17 11 106
-6 -2 155 57 107
-167 -5 -375 -66 107
130 8 -162 19 108
91 22 151 -4 108
-176 34 433 117 109
57 -1 -199 -78 109
185 -42 -321 -41 110
-169 21 506 334 110
-62 29 264 57 110
229 72 -96 21 111
-70 5 -724 -222 111
-106 -17 215 54 112
186 61 994 248 112
34 39 -184 -72 112
-162 -45 -409 -113 113
149 56 209 137 113
159 98 499 182 114
-133 75 33 18 114
2 -87 -1105 -357 115
173 5 184 60 115
-107 63 413 130 115
-121 11 62 -30 116
248 33 -174 -19 116
-80 -78 -367 -151 116
-148 29 -23 -3 117
136 -3 -535 -119 117
47 -99 -297 -132 117
-159 50 718 270 118
107 20 482 92 118
182 102 -36 22 118
-220 -54 -744 -267 119
-47 -85 435 166 119
202 84 522 178 119
-158 -61 -36 -46 120
-34 129 139 51 120
201 27 -354 -137 120
-21 36 36 83 121
-233 -22 -209 -62 121
165 -20 -120 -112 121
79 52 -49 36 122
-191 -69 -219 -74 122
113 -4 -43 -70 122
133 -77 77 45 123
-219 -25 217 37 123
-125 -92 -265 -96 123
164 -162 -258 5 123
-145 -14 159 -59 124
-146 129 253 25 124
243 201 111 66 124
12 94 -135 21 124
-159 -71 5 47 124
42 -90 -266 -185 125
141 71 -20 -17 125
-151 109 91 109 125
87 69 181 152 125
223 39 96 43 125
-174 -27 -354 -110 125
-37 -52 -65 64 125
212 -10 203 47 125
-70 -11 143 11 125
-152 -39 -123 -102 125
135 -53 -351 -98 125
63 15 135 91 125
-199 -8 -41 -28 125
120 31 121 65 125
131 -15 -65 -62 125
-177 18 96 38 125
13 16 6 27 125
210 36 50 63 124
-120 14 -1 -17 124
-82 7 -44 -28 124
220 15 -69 -14 124
-35 24 -58 -37 124
-193 3 -7 11 123
192 59 130 99 123
119 57 104 94 123
-148 43 131 96 123
92 12 10 -30 122
109 -15 -79 -52 122
-155 25 -22 21 122
-33 -17 -293 -111 121
159 14 64 58 121
-48 25 102 21 121
-117 40 272 93 120
211 33 63 16 120
-25 -48 -363 -154 120
-191 7 -87 27 119
107 39 126 62 119
86 34 117 31 118
-208 -5 -64 -63 118
0 -13 -102 -42 118
148 33 -14 35 117
-150 11 10 9 117
-22 26 43 45 116
169 5 -162 -32 116
-149 10 -102 27 115
-80 -12 35 -22 115
222 42 123 31 114
72 41 177 33 114
-160 14 -139 -32 113
106 17 -23 -5 113
104 0 16 -17 112
-179 10 36 4 112
41 30 63 59 111
205 35 -30 11 111
-129 21 20 26 110
-67 -1 -145 -67 110
197 -5 -117 -21 109
-89 -17 -176 -59 109
-174 16 81 60 108
192 27 100 63 107
48 12 95 47 107
-171 -10 -45 -54 106
95 -24 -189 -106 106
123 -1 42 13 105
-199 13 135 52 105
8 12 64 15 104
183 14 -1 -14 103
-116 -1 -127 -48 103
-102 2 -100 -33 102
167 1 -37 -1 102
-16 19 -1 9 101
-127 19 36 41 100
182 21 -127 -27 100
69 -14 -296 -130 99
-166 9 -53 -3 98
61 27 209 123 98
159 38 311 132 97
-138 26 149 48 96
-4 10 -48 -21 96
165 8 -92 6 95
-85 16 27 13 94
-115 -7 12 -37 94
169 -1 76 3 93
-9 7 14 0 92
-173 -18 -164 -56 92
124 -18 -120 -43 91
112 9 17 44 90
-130 43 19 43 90
100 61 61 77 89
217 48 -3 27 89
-150 -19 -181 -94 88
-71 -33 -126 -69 87
167 -1 -11 39 86
-76 51 65 59 86
-121 23 175 112 85
100 -41 39 -45 84
28 8 87 33 83
-200 6 -54 -26 83
172 44 -35 16 82
139 37 -13 -1 81
-186 8 10 1 81
-17 -14 -3 -15 80
110 -36 -118 -75 79
-212 -61 -145 -77 79
-68 -5 -41 -7 78
223 14 54 23 78
-28 6 30 8 77
-144 -28 -84 -45 76
122 -29 -97 -25 76
8 -1 -40 -16 75
-169 14 -10 13 74
102 14 -28 12 74
108 6 -113 -31 73
-194 -3 85 55 73
-2 9 204 43 72
183 23 196 63 71
-88 31 91 49 71
-75 23 -61 -1 70
219 44 -61 18 69
-1 34 -17 13 69
-147 3 -46 -13 68
131 -7 -85 -43 68
57 8 -31 0 67
-181 7 -35 -1 67
69 9 -10 7 66
135 5 -81 -47 66
-142 -10 -155 -61 65
-53 -19 -60 -1 65
180 -2 65 36 64
-132 -11 112 59 64
-117 13 12 12 63
173 18 26 11 63
1 13 96 17 62
-181 -8 95 -9 61
121 6 26 -25 61
86 12 -67 -24 60
-171 10 -43 9 60
40 6 -37 2 59
166 18 -40 3 59
-145 13 -53 -9 58
-24 20 -37 -3 58
199 19 -39 6 57
-51 28 -14 18 57
-122 1 -57 -1 57
187 19 -128 -9 56
19 -2 -101 -11 56
-161 10 103 33 55
106 14 241 72 54
126 34 113 47 54
-171 36 73 48 54
8 17 41 16 53
158 17 107 31 53
-120 10 12 -10 52
-78 8 -69 -13 52
188 10 -70 -8 51
-31 11 -48 -13 51
-142 7 -65 -17 50
131 8 -74 -11 50
54 16 -35 19 50
-144 13 -15 14 49
112 25 1 22 49
157 10 -14 8 49
-158 0 -35 -5 48
16 25 3 35 48
173 8 8 5 48
-91 19 -30 -20 47
-89 -2 -4 5 47
168 6 30 4 47
-22 9 54 13 46
-152 3 41 -8 46
144 3 21 -1 45
71 15 3 14 45
-181 15 -7 12 44
62 7 -13 1 44
139 15 -2 -2 44
-165 -2 -1 -15 43
-21 11 -23 1 43
181 12 -50 -15 42
-85 10 -67 -2 42
-109 2 -32 8 42
181 13 31 22 41
19 24 81 31 41
-168 6 30 3 41
132 9 -4 4 40
100 13 -31 11 40
-163 10 -33 2 40
47 11 -13 16 39
183 40 6 29 39
-131 11 16 13 38
-2 49 27 25 38
210 33 20 25 38
-55 23 5 31 37
-136 -3 -8 -14 37
165 20 -24 -3 37
47 30 8 24 36
-171 12 -8 1 36
118 13 -6 8 36
109 4 -15 -2 35
-168 4 -11 -3 35
9 0 -6 -1 35
152 -4 -16 -8 34
-160 -26 -23 -16 34
-75 0 -13 -2 34
175 -7 -21 -9 33
-50 -5 -19 -6 33
-137 6 5 20 33
125 -5 -25 -25 32
98 70 81 80 32
-167 10 26 18 31
112 55 75 79 31
145 15 -6 -3 31
-184 -12 -37 -30 30
16 27 6 8 30
191 23 0 21 30
-58 57 82 89 30
-63 55 14 27 29
177 7 10 7 29
1 30 8 32 29
-142 5 -20 12 28
132 25 -2 9 28
69 4 -10 1 28
-174 -6 -20 -18 27
45 6 -17 -17 27
144 8 -15 -8 27
-144 -5 -14 -5 27
-52 -11 -29 -18 26
171 -11 -24 -13 26
-81 17 -1 4 26
-89 5 -5 -15 26
152 3 -10 -9 26
24 27 32 37 25
-172 -3 -1 15 25
95 9 -16 17 25
110 31 3 26 25
-206 -23 -42 -32 25
76 19 10 33 25
169 22 0 13 25
-130 4 -1 12 24
-32 9 -5 -4 24
187 11 -2 -8 24
-54 16 -8 -18 24
-104 40 10 31 24
166 5 -6 9 24
19 3 -20 6 24
-172 2 -20 -12 24
98 3 -18 -33 24
122 25 36 30 24
-173 3 -24 -1 24
12 3 -10 9 24
168 13 -20 7 23
-121 2 -15 -5 23
-77 18 8 16 23
215 26 4 19 23
-23 19 -7 -4 23
-136 15 -3 8 23
179 25 7 19 23
52 5 -15 1 23
-149 26 40 49 23
89 22 0 11 22
147 25 17 29 22
-172 -2 -13 1 22
-33 -19 -24 -18 22
208 49 27 37 22
-126 -19 -35 -35 22
-99 -1 -11 -15 21
179 -1 5 -4 21
-21 10 16 32 21
-155 15 -4 1 21
168 33 9 19 21
76 5 -17 -22 21
-171 11 -2 3 21
51 -3 -5 18 21
153 9 -38 -13 20
-157 -14 -17 14 20
-37 9 -9 10 20
199 22 -1 21 20
-104 -9 -33 -3 20
-118 -8 -15 0 20
171 7 -15 0 20
29 43 5 16 20
-175 -22 -10 -27 19
139 27 51 57 19
70 -6 -19 -23 19
-160 11 8 7 19
28 -1 0 7 19
164 18 -9 8 19
-130 6 -9 45 19
-30 46 5 42 18
147 -9 -25 9 18
-77 -14 -19 -13 18
-100 -11 -2 -11 18
184 49 43 34 18
24 -1 -18 -26 18
-180 -9 3 5 18
96 -5 -21 -12 17
102 4 -18 4 17
-126 19 -26 -32 17
-4 -11 -7 -13 17
162 -1 13 2 17
-109 26 22 37 17
-82 2 -29 -27 17
181 12 -4 -9 16
-30 17 7 1 16
-123 14 7 13 16
152 32 -24 45 16
21 -31 -83 -59 16
-163 5 22 53 16
117 79 68 64 16
148 22 16 31 15
-159 3 -19 -13 15
26 41 7 23 15
177 3 0 24 15
-122 -19 -19 -5 15
-66 13 7 1 15
189 23 8 4 14
79 122 123 115 14
-185 -39 -78 -111 14
123 -18 3 5 14
69 -1 -30 -5 14
-192 17 -9 24 14
91 51 -3 45 14
150 -7 -45 -89 14
-162 -5 -20 -4 13
-51 12 -27 21 13
205 27 37 74 13
-69 26 -4 12 13
-113 2 -15 2 13
125 -38 -32 -25 13
-15 -24 -34 -19 13
-168 9 -7 -11 13
123 10 -16 -10 12
117 22 13 22 12
-163 24 13 -8 12
2 -7 -13 -63 12
154 1 8 -20 12
-121 11 -17 7 12
-55 22 -6 66 12
179 0 -33 -1 12
-43 21 -13 11 11
-127 26 6 23 11
148 3 -22 -11 11
51 11 -1 25 11
-171 1 -15 -14 11
91 20 -6 16 10
127 10 -15 -21 10
-168 -5 -21 -59 10
12 18 58 58 10
167 13 0 41 9
-94 17 -3 25 9
-80 16 -6 -19 9
176 12 -1 8 9
-38 1 -20 2 9
-152 -3 -37 -13 8
149 17 7 6 8
48 -2 -11 -8 8
-193 -15 -27 -29 8
59 -7 -23 -26 8
115 -2 -11 -5 8
-166 3 -15 -52 7
5 17 51 4 7
180 19 -25 44 7
-80 31 -11 33 7
-84 27 -22 65 7
181 17 -27 -26 7
-40 -7 -6 0 7
-144 23 13 32 7
142 13 -3 -1 7
86 10 10 13 7
-201 -25 -17 -5 6
66 12 -8 2 6
152 23 -33 6 6
-132 21 -50 0 6
-27 9 -17 11 6
179 24 65 30 6
-73 8 69 2 6
-107 1 20 -10 6
176 11 -63 -15 6
12 14 -133 -3 6
-165 8 -62 7 6
123 15 -30 7 6
89 0 12 23 6
-178 8 70 6 6
28 8 -20 -13 6
178 27 -40 -14 6
-127 10 -90 -10 6
-59 2 95 41 7
187 33 259 66 7
-65 9 246 23 7
-129 6 32 -37 7
160 5 -124 -33 8
51 26 -80 -33 8
-185 2 68 72 9
123 31 23 56 9
132 17 -68 34 9
-155 23 -65 0 10
11 15 27 26 11
173 7 44 2 11
-111 11 -75 -26 12
-69 16 -157 -22 13
201 11 -101 8 13
-22 16 -4 19 14
-141 22 0 6 15
179 40 65 18 15
107 50 36 54 16
-126 51 -24 22 17
137 57 -85 17 17
166 48 35 60 18
-137 40 220 82 19
-13 19 177 77 20
189 33 6 20 20
-89 31 -118 -5 21
-125 -21 42 -11 22
174 8 114 -11 22
-34 -14 -59 -58 23
-190 -31 -208 -94 24
102 -23 -215 -42 25
48 -33 -83 -28 25
-217 -45 -114 -79 26
2 -53 -133 -81 27
112 -37 -164 -73 27
-178 -36 -88 -19 28
-72 -37 -133 -42 29
133 -24 96 5 29
-102 0 344 125 30
-136 22 326 113 31
166 24 134 64 31
64 36 -2 31 32
-108 43 -135 -25 33
146 29 -160 -55 34
111 19 -153 -45 34
-170 13 68 18 35
35 31 238 116 36
167 29 76 38 37
-96 2 -148 -48 37
-50 0 -191 -72 38
169 21 12 87 39
-59 26 144 52 40
-124 9 32 21 41
154 -11 -215 -131 41
17 -7 -114 -60 42
-167 3 4 -9 43
92 22 131 91 44
125 22 -11 41 45
-141 18 -85 -18 46
13 13 86 25 46
169 39 234 67 47
-70 43 -5 85 48
-41 41 -184 -33 49
188 29 42 19 50
7 32 179 30 50
-133 21 161 49 51
154 31 60 59 52
70 11 -144 -24 53
-185 -8 -181 -70 54
49 -15 -264 -77 54
120 3 -17 32 55
-149 -4 61 14 56
-48 -15 16 -24 57
182 -3 -51 -14 58
-97 -9 -150 -23 59
-111 -3 -24 8 59
157 8 105 65 60
2 -6 51 -35 61
-154 0 -87 -24 62
137 3 9 5 62
63 12 242 11 63
-182 26 491 163 64
45 8 3 -15 65
162 -11 -536 -153 66
-122 -2 -264 -92 66
38 112 365 235 67
225 82 72 94 68
-79 7 -206 -63 69
-136 -32 12 -10 69
155 1 303 80 70
4 27 -162 -27 71
-184 -25 -312 -91 72
96 -19 -139 -40 72
65 3 257 106 73
-201 17 269 31 74
35 -15 -37 -78 75
160 -36 -110 -118 75
-173 -21 -37 -38 76
-56 15 -71 45 77
182 -3 -305 -60 77
-61 25 72 77 78
-146 21 -39 -7 79
150 20 132 13 80
61 -2 -348 -157 80
-198 -29 -351 -165 81
127 39 321 162 82
181 75 557 210 82
-125 65 275 152 83
15 -3 -148 -33 84
153 -6 -103 -56 84
-110 20 151 47 85
-47 43 97 16 86
219 11 -474 -147 86
-9 17 -150 8 87
-196 -23 -231 -60 88
116 -24 -299 -89 88
42 -14 199 69 89
-184 10 455 115 89
73 35 502 114 90
172 47 -154 -69 91
-129 29 -368 -15 91
8 44 179 75 92
191 14 226 135 92
-105 -19 -145 -68 93
-154 -45 -309 -161 94
187 -20 88 -25 94
-15 50 499 197 95
-155 24 137 61 95
114 -18 -552 -157 96
75 -45 -395 -183 96
-216 -16 192 53 97
58 25 11 63 97
160 12 -212 -63 98
-154 7 -267 -89 98
-40 -1 246 96 99
168 16 433 146 99
-70 1 -87 -56 100
-88 9 -361 -92 100
152 -5 -295 -54 100
21 23 111 -9 101
-194 -5 -76 39 101
107 38 393 151 102
145 39 232 64 102
-177 -5 -83 -56 102
41 18 -60 -101 103
182 7 -307 -107 103
-119 36 64 86 103
-81 26 203 182 104
253 43 72 86 104
-85 -2 -306 -139 104
-154 -5 108 -114 105
191 6 282 92 105
21 -7 292 93 105
-164 30 142 105 105
97 -23 -729 -203 106
116 -17 -401 -73 106
-202 -18 111 -1 106
1 7 215 -4 107
197 7 -291 -140 107
-145 -14 -285 -60 107
-111 7 -42 35 108
173 -3 71 -2 108
-29 28 377 138 108
-190 -57 -129 -167 108
191 60 359 163 109
66 27 23 70 109
-184 43 0 101 109
112 23 1 -59 110
153 13 15 -91 110
-167 -49 -637 -223 110
-105 -17 -226 24 110
246 55 418 208 111
-113 -3 153 34 111
-145 -71 -599 -210 111
214 -48 -192 60 112
31 77 419 200 112
-192 72 496 156 112
264 79 25 -30 112
112 -32 -150 -75 113
-220 31 569 202 113
83 71 377 118 114
179 34 -235 -125 114
-165 24 -168 -2 114
-73 -25 -273 -59 115
141 -102 -844 -337 115
-87 -49 -302 -82 115
-172 -52 63 72 116
155 22 69 -19 116
66 39 -188 -43 116
-161 20 178 208 117
216 161 728 411 117
114 49 259 110 117
-202 2 105 -27 118
-5 1 212 65 118
123 6 259 62 118
-160 19 70 -7 119
-113 -142 -1102 -494 119
127 -113 -315 -125 119
-57 53 577 276 120
-153 32 325 111 120
183 26 -100 -22 120
47 -25 -349 -151 121
-214 -58 -92 -42 121
98 63 166 113 121
137 -9 -94 -14 121
-204 -21 -229 -109 122
9 18 -71 -17 122
171 -30 -360 -113 122
-149 -35 -299 -104 122
-88 -8 154 72 122
152 1 290 23 122
-18 57 418 168 122
-128 65 150 69 122
198 69 174 103 122
85 33 59 45 122
-161 9 -81 -39 122
82 22 -79 8 122
174 30 -40 23 122
-156 9 -24 0 122
-25 -7 -69 -13 122
203 12 -115 0 122
-106 -3 -189 -36 121
-103 11 -16 -5 121
187 21 109 36 121
-16 31 2 -23 121
-188 -23 -304 -106 121
137 -7 -55 3 120
70 43 255 120 120
-149 27 232 58 120
64 58 237 121 120
203 39 48 59 119
-204 25 80 43 119
4 27 -97 -45 118
187 5 -150 -48 118
-42 17 -22 19 118
-102 28 24 19 117
174 13 -125 -42 117
11 3 -82 -14 117
-187 14 15 11 116
101 24 7 29 116
93 -2 -66 16 115
-211 -30 -109 -75 115
15 0 119 -5 114
160 6 171 25 114
-135 15 54 33 113
-68 18 46 59 113
215 21 -64 -15 112
-65 5 -93 -44 111
-135 19 -22 -14 111
173 31 64 57 110
57 40 146 85 110
-167 14 -38 -8 109
87 -6 -148 -65 108
136 11 -87 -29 108
-165 10 10 32 107
27 27 10 8 107
213 14 -106 -47 106
-96 19 -69 11 105
-71 41 39 77 105
203 27 159 78 104
-7 25 156 66 103
-170 -4 -8 -25 102
128 -11 23 -5 102
40 -15 30 12 101
-216 -32 -98 -72 100
59 -7 -79 -10 99
154 17 -41 9 99
-127 36 77 55 98
-8 21 29 14 97
208 24 -7 4 96
-86 12 -67 -13 96
-123 -4 -134 -32 95
178 1 -180 -80 94
-17 -29 -219 -92 93
-229 -25 2 3 92
122 14 176 92 92
120 27 262 123 91
-159 23 168 73 90
65 -29 -5 -28 89
157 -1 -119 -42 88
-172 -1 -69 1 87
-81 -14 -71 -19 87
204 13 -12 21 86
-91 -3 29 -13 85
-143 -7 -80 -8 84
150 -20 -151 -75 83
36 24 16 22 83
-130 35 31 64 82
161 55 -76 22 81
141 36 -16 53 80
-151 17 64 48 79
6 9 227 71 79
184 16 150 13 78
-127 4 -67 -40 77
-94 -9 -156 -46 76
163 -3 -42 8 76
-65 -6 5 -23 75
-154 11 62 3 74
164 23 25 12 73
51 23 -54 -2 73
-153 23 -68 -6 72
118 22 -115 -36 71
142 35 -120 16 71
-171 21 6 22 70
22 2 58 20 69
177 8 113 29 69
-125 -35 -220 -111 68
-123 -42 -157 -44 67
171 1 123 67 67
-23 32 269 97 66
-145 23 224 99 65
161 23 -15 -13 65
84 38 -51 -8 64
-166 27 9 5 64
64 -5 -73 -31 63
148 17 -91 -19 63
-153 -4 -67 -31 62
-37 -2 -21 0 62
190 0 -27 -15 61
-101 -13 -40 -26 61
-138 -3 -46 -9 60
151 -23 -100 -45 60
-16 -23 -149 -59 59
-172 16 -49 -14 59
154 40 99 82 58
93 17 138 52 57
-190 -1 109 21 57
50 16 -46 -13 56
157 0 -104 -26 56
-136 4 0 18 55
-59 5 112 39 54
185 19 130 23 54
-67 12 35 9 53
-130 8 -63 -17 53
196 28 -26 25 52
41 22 -12 -1 52
-168 0 -73 -12 51
98 15 -56 13 51
121 5 -59 16 50
-173 12 -25 1 50
12 -7 -31 -8 49
217 41 0 37 49
-137 0 51 11 48
-68 1 19 2 47
175 -12 -14 -18 47
-82 -7 -87 -16 46
-36 89 23 82 46
157 13 -17 2 45
69 19 91 25 45
-176 1 104 12 44
83 15 70 18 44
133 26 11 11 44
-148 19 -47 0 43
-6 0 -54 -10 43
157 8 -39 -8 42
-101 11 -41 0 42
-83 10 -32 6 41
180 15 -21 9 41
1 24 -1 17 41
-143 11 2 9 40
160 16 9 15 40
64 -1 -30 -13 39
-210 -33 -52 -34 39
46 -14 -28 -1 38
155 29 0 28 38
-128 19 17 25 38
-12 16 13 5 37
149 2 10 -14 37
-96 1 -18 -19 36
-108 5 -7 4 36
170 0 7 18 36
21 26 50 21 35
-168 9 27 8 35
116 11 13 3 34
119 23 10 15 34
-174 5 -27 -4 33
62 41 7 31 33
180 20 3 20 33
-125 14 -16 15 32
-62 1 -25 -3 32
183 13 -3 20 31
-80 -5 -25 -11 31
-107 11 -7 0 30
133 0 -26 -14 30
79 71 40 49 30
-159 11 -17 -3 29
85 16 -22 -9 29
128 5 7 27 29
-184 -10 -18 -16 28
21 10 11 1 28
171 14 -8 -3 28
-111 18 -12 11 27
-55 23 11 25 27
191 17 4 11 27
-55 -7 -8 -7 26
-133 15 8 29 26
134 -15 -45 -21 26
56 21 24 31 25
-160 -6 -21 -24 25
81 0 1 2 25
117 0 -14 -1 25
-172 4 -16 0 25
13 16 7 18 24
176 26 -12 -6 24
-102 12 1 -5 24
-84 14 3 16 24
204 23 8 23 24
-15 10 8 24 24
-159 4 -15 -3 23
150 30 2 20 23
73 4 7 17 23
-180 0 -25 -25 23
72 25 56 31 23
150 16 -9 -5 23
-135 20 1 15 22
-23 10 -4 6 22
183 18 -5 7 22
-77 15 -8 -3 22
-107 5 16 3 22
166 4 2 8 22
3 3 -6 11 21
-163 1 -16 -5 21
114 3 -4 -14 21
90 11 1 12 21
-168 7 -3 20 21
58 26 -10 8 21
173 24 18 10 20
-141 1 -17 -28 20
-34 9 6 27 20
182 14 -9 39 20
-85 -1 -52 -24 20
-137 -11 -3 7 20
113 -36 -50 -19 20
34 9 6 27 20
-180 -4 -40 -34 19
87 -1 -21 -29 19
103 -3 27 31 19
-170 -5 -49 -41 19
0 -8 -22 4 18
170 21 -5 14 18
-112 6 -15 -11 18
-65 15 3 20 18
190 27 8 25 17
-17 28 5 23 17
-144 18 2 3 17
140 5 -5 -2 17
73 27 -2 1 17
-148 19 16 25 16
113 35 18 5 16
145 25 27 33 16
-141 35 32 29 16
0 30 1 21 16
172 1 -9 11 15
-93 21 7 8 15
-107 -10 -6 -7 15
179 11 0 -1 15
-67 -14 -31 -2 15
-140 18 -24 -1 15
144 32 -5 13 14
73 9 5 6 14
-145 16 13 15 14
55 13 -18 -11 14
152 21 -9 11 14
-145 14 -13 4 14
-45 0 -14 -11 13
208 19 -1 10 13
-83 9 -1 3 13
-109 11 -11 -2 13
118 -38 -44 -33 13
17 20 -25 17 13
-159 12 9 24 13
121 16 2 9 12
102 -5 -28 -13 12
-188 3 -18 -3 12
36 18 -9 11 12
166 5 7 8 12
-133 4 -10 -21 12
-89 -21 -32 -6 11
197 19 -19 5 11
-48 14 8 -13 11
-139 -5 -5 -53 11
160 8 -29 33 11
31 4 -58 -10 11
-170 8 -31 17 11
104 12 0 -9 10
98 -1 -16 15 10
-158 19 -4 18 10
24 18 -5 23 10
168 10 -6 -9 10
-119 7 16 0 9
-91 -5 -5 9 9
179 9 -11 4 9
-28 23 2 17 9
-133 11 0 5 9
151 14 8 11 8
52 3 -5 -6 8
-151 11 -3 -18 8
66 2 -17 -40 8
122 -2 -36 -73 8
-151 7 7 22 7
-30 -4 -61 -50 7
208 46 18 -4 7
-67 32 30 80 7
-85 25 -96 3 7
176 17 -15 65 7
-15 -1 -47 -16 7
-171 -17 -30 -46 6
125 7 21 19 6
72 10 -9 -7 6
-161 -3 -12 -30 6
37 -7 -2 -16 5
152 18 14 7 5
-132 3 -12 -21 5
-30 4 -31 -46 5
201 47 -20 13 4
-77 13 -2 1 4
-102 13 5 1 4
171 7 -10 7 4
10 10 -7 33 4
-176 -3 -11 12 4
110 -2 -26 -22 4
87 -11 -6 -25 3
-190 -6 6 -25 3
-20 -43 -40 -45 3
207 49 57 40 3
-121 28 -55 -49 3
-37 25 61 106 3
198 16 -41 15 3
-55 24 22 77 3
-125 15 -23 22 3
178 13 -10 -19 2
48 11 12 12 2
-175 9 -1 7 2
110 13 -1 -7 2
125 15 15 8 2
-161 7 13 12 2
30 25 -44 4 1
162 -3 -92 -11 1
-93 23 -66 20 1
-77 6 -11 24 1
203 31 77 43 1
-18 17 55 15 1
-164 -17 -6 -20 1
123 -9 -44 -29 1
29 -9 -10 0 1
-177 1 45 -4 1
59 -14 27 -22 1
135 16 -7 -5 1
-139 4 5 14 1
-1 19 55 20 1
177 15 96 19 1
-82 28 9 6 1
-84 17 -81 0 2
190 27 -188 1 2
-11 11 -134 -3 2
-159 0 -56 12 3
125 0 166 45 3
85 20 161 10 3
-168 0 48 -27 4
48 -2 -104 -26 4
140 7 -124 -9 5
-136 5 -92 -18 5
-32 -1 -66 -29 6
198 30 -26 -14 7
-59 11 -82 -1 7
-110 -2 -129 -3 8
157 3 89 19 8
18 18 215 78 9
-142 25 189 35 10
136 34 5 25 10
133 35 89 34 11
-130 50 195 107 12
51 31 55 8 13
171 41 -65 15 14
-115 24 23 54 14
-62 21 73 56 15
184 12 -62 -4 16
-53 -14 -236 -44 17
-161 -25 -61 -34 18
125 -16 102 18 19
13 0 -47 -53 20
-167 -8 -335 -116 21
92 -12 -268 -45 22
114 -8 6 -21 23
-195 -20 152 34 24
-9 -3 131 -4 25
165 15 -70 14 26
-122 13 127 39 27
-86 32 223 81 28
181 27 298 81 29
-23 40 6 30 30
-123 21 -373 -96 31
178 33 -435 -81 32
93 58 0 77 33
-144 22 12 42 34
63 -6 -5 -34 35
94 -5 -113 -82 36
-207 -24 139 -3 37
-45 -18 272 43 38
141 -41 19 15 39
-106 -7 -165 -46 41
-82 16 -54 17 42
227 35 161 54 43
25 5 109 2 44
-122 -3 -170 -60 45
131 1 -243 -49 46
67 12 95 76 47
-165 16 337 121 48
71 25 112 69 49
168 33 -411 -117 50
-145 17 -307 -23 51
-35 14 52 37 53
160 -8 251 68 54
-64 16 82 38 55
-97 13 -104 -52 56
170 30 35 19 57
27 18 228 54 58
-162 5 78 17 59
95 14 33 41 60
77 3 -189 -49 61
-117 35 -138 19 62
87 70 225 135 63
195 45 393 118 64
-89 37 183 53 65
-20 11 -303 -72 66
149 18 -414 -82 67
-48 -1 -284 -61 68
-126 -30 36 -26 69
106 -32 31 -8 70
4 -20 -117 -84 71
-197 -19 20 14 72
96 -14 82 34 73
87 5 149 80 74
-156 22 212 19 75
-12 -11 73 24 75
149 -15 5 -13 76
-109 -33 -330 -121 77
-109 -44 -398 -152 78
136 -24 100 23 79
-48 -6 28 -1 80
-198 -34 -114 -98 81
161 17 -217 -107 81
76 26 -62 28 82
-181 32 99 43 83
82 -7 -336 -80 83
127 -17 -7 73 84
-213 -1 602 119 85
40 65 817 287 86
219 66 19 -15 86
-13 56 -618 -113 87
-28 83 -113 11 88
253 99 350 170 89
51 95 446 183 89
-105 23 -107 -20 90
136 -13 -243 -145 91
27 -21 -244 -88 91
-223 -38 -263 -81 92
5 -55 -175 -1 93
133 -21 -361 -64 93
-219 -51 -196 -70 94
-100 -55 197 -56 95
189 -6 325 25 95
-27 76 31 117 96
-68 61 -123 115 96
183 14 237 67 97
16 22 403 9 98
-158 45 43 19 98
141 26 22 69 99
145 24 -194 -72 99
-208 -23 -1 8 100
12 12 97 21 100
167 0 -120 -10 101
-192 -38 -489 -133 102
-129 -52 -171 -30 102
206 -18 -146 -32 103
-16 15 296 38 103
-69 77 309 127 104
181 -7 -324 -112 104
27 55 385 228 105
-157 51 354 91 105
145 20 -599 -202 105
72 -81 -592 -246 106
-197 -6 325 171 106
-14 37 380 128 107
194 36 202 132 107
-146 -63 -119 -183 108
-70 -33 125 -76 108
185 69 149 58 109
-23 49 -327 -44 109
-115 -31 -522 -190 110
158 16 -15 -15 110
78 67 444 116 111
-121 44 -176 41 111
79 -38 -502 -152 112
38 -130 27 107 112
-209 -91 244 16 113
-24 18 152 -37 113
120 -42 161 41 114
-156 -165 -353 -176 114
-171 -282 -23 -52 115
223 133 237 65 115
21 175 52 72 116
-135 166 -325 -70 116
80 22 -164 -109 117
234 245 209 134 117
-142 273 14 65 117
139 119 220 148 118
185 -47 49 19 118
-221 -101 -186 -147 118
-95 -57 -129 -31 119
235 -74 -1 91 119
-35 -27 50 57 119
-138 -38 15 -9 120
207 -33 -3 -20 120
14 -12 47 15 120
-213 -27 -38 1 120
140 3 -121 -32 120
90 -56 -121 -35 120
-199 56 67 74 121
13 22 62 59 121
184 -1 54 46 121
-174 -6 -14 -56 121
-44 32 78 125 121
200 9 -13 -28 121
-41 28 105 31 120
-123 16 91 25 120
171 24 14 10 120
40 17 -16 21 120
-179 -1 -65 -48 120
96 -11 -64 -29 120
149 8 -37 18 120
-200 8 -29 -1 120
46 4 -73 -29 120
207 14 -41 5 119
-151 -6 -129 9 119
-116 -17 -185 -81 119
221 48 76 49 119
-10 39 99 41 118
-115 57 282 140 118
174 55 206 96 118
23 22 -16 -27 117
-194 13 65 5 117
63 6 0 18 117
169 42 -1 24 116
-134 18 43 27 116
-26 19 -71 -18 115
182 4 -124 -46 115
-96 -1 -63 -17 115
-128 -10 -42 -14 114
167 14 -35 2 114
-18 -5 -86 -41 113
-208 -62 -464 -253 113
140 -11 -11 13 112
111 68 333 194 112
-177 59 308 149 111
99 47 59 25 111
183 24 -114 -51 110
-163 21 0 21 110
-10 51 101 83 109
230 27 -70 -14 109
-66 19 -27 -21 108
-155 1 23 -17 107
164 -25 -103 -69 107
7 -1 -64 -25 106
-186 1 -7 15 106
142 4 -90 -12 105
105 8 -53 -5 105
-179 -17 -151 -89 104
20 11 33 39 103
168 22 66 55 103
-167 -15 -30 43 102
-69 28 129 41 101
189 14 129 46 100
-56 13 133 32 100
-145 5 52 29 99
173 8 -90 -30 98
28 33 -38 1 98
-170 24 -51 -10 97
130 18 -80 -17 97
138 8 -92 -28 96
-164 -10 -186 -105 95
10 -3 -27 3 95
159 -5 130 72 94
-104 23 121 76 93
-29 29 -55 20 93
205 11 -150 -33 92
3 29 15 9 91
-159 12 159 71 90
134 14 196 58 90
45 6 66 1 89
-177 9 -10 -8 88
79 12 -60 -17 88
165 33 -56 1 87
-141 22 -64 -14 86
31 47 -23 13 85
206 9 -89 -33 85
-104 -15 -50 2 84
-168 -37 -115 -60 83
160 -18 -77 -29 82
-64 -5 88 110 82
-133 -13 58 31 81
118 -14 49 15 80
86 -7 -44 -43 80
-177 18 35 25 79
9 -13 62 25 78
149 5 35 24 78
-109 42 -20 -17 77
-36 39 -59 0 76
219 30 -19 5 76
-42 23 9 -1 75
-138 -1 -34 -39 75
151 -6 -91 -47 74
21 -18 -171 -91 73
-211 -22 -92 -51 73
76 -1 -11 13 72
154 24 -2 48 72
-169 9 -17 42 71
58 25 8 10 70
162 5 144 35 70
-147 6 242 69 69
-104 -11 150 49 68
184 27 38 27 68
-33 12 -56 -13 67
-109 15 -64 -13 67
188 15 -64 -15 66
35 -4 -86 -36 65
-192 -12 -72 -35 65
52 -19 -93 -33 64
106 -1 -56 -14 64
-123 21 -11 12 63
-8 4 -32 -1 63
200 17 0 20 62
-137 -16 -88 -37 62
-85 2 -133 -43 61
173 32 -16 35 61
-17 22 59 40 60
-149 14 175 83 59
124 10 113 22 59
91 32 33 9 58
-165 34 89 44 57
89 21 78 22 57
149 30 43 25 56
-175 17 -35 -7 56
67 35 -47 4 55
224 53 -20 29 55
-29 42 -41 4 54
-94 10 -77 -16 54
155 -5 -48 -2 53
-14 4 -13 13 53
-191 -13 -19 -10 52
103 -15 -41 -22 52
75 2 -55 -12 51
-182 5 -42 0 51
58 -17 -8 12 50
146 -6 -52 -10 50
-162 -12 -84 -21 49
-49 2 -53 15 49
179 -3 99 20 48
-81 0 188 37 47
-81 32 142 18 47
155 7 21 -7 46
37 21 -16 8 46
-154 15 -33 5 45
63 -15 -70 -33 44
130 14 -43 1 44
-147 25 -26 11 43
17 5 -37 -3 43
207 26 -2 31 42
-87 46 10 24 42
-45 34 26 47 41
208 15 12 20 41
-60 -2 -13 -1 40
-144 3 -14 1 39
158 18 11 13 39
39 -8 -19 3 38
-167 19 2 5 38
109 34 11 42 37
155 51 19 40 37
-171 -3 -21 -31 36
16 26 28 17 35
158 10 2 7 35
-98 32 4 18 34
-80 13 -17 -4 34
198 48 10 20 33
16 29 16 2 32
-150 13 3 5 32
143 12 -2 14 31
78 -1 -23 -1 31
-186 -11 -33 -19 30
51 -20 -11 -7 30
138 6 7 3 29
-183 -12 -15 -15 29
-47 -6 -24 -4 28
179 -1 -21 -3 28
-97 1 -4 5 27
-105 -3 10 2 27
179 9 5 -11 26
15 22 6 12 26
-163 6 -8 -3 25
115 -1 -8 -18 25
98 23 22 50 25
-188 -11 -47 -10 24
15 -17 -44 2 24
197 44 10 42 23
-137 17 -33 -15 23
-25 36 41 51 23
194 2 -14 -12 22
-53 17 4 1 22
-132 8 13 -8 22
199 33 13 0 21
47 14 31 21 21
-180 11 -6 5 21
91 7 17 45 20
123 3 -24 9 20
-186 -5 -35 -25 20
24 22 0 19 19
211 31 4 25 19
-129 -6 -20 -2 18
-85 2 -3 -2 18
204 11 -3 2 18
-33 15 10 1 17
-142 24 24 27 17
157 19 -13 -7 17
50 1 -19 -10 16
-175 11 -23 -20 16
99 33 44 48 16
103 -21 -60 -72 16
-159 14 40 51 15
-6 5 -21 31 15
212 45 13 70 15
-106 -4 -12 29 15
-106 3 -8 -10 15
184 28 43 32 14
-23 1 -28 -1 14
-176 4 -39 -31 14
156 11 -6 9 14
97 32 28 32 13
-144 15 10 13 13
59 10 -2 6 13
139 18 2 9 13
-125 19 8 7 13
-36 -1 -10 -6 12
166 9 -24 -21 12
-77 18 7 24 12
-111 0 -17 -27 12
188 13 -16 13 12
20 17 46 1 12
-141 19 67 99 12
120 21 -27 -5 12
75 1 -32 16 12
-163 6 -65 -16 12
20 -5 -25 -17 12
154 21 16 29 11
-135 3 -27 -29 11
-64 -11 -9 -1 11
184 10 -2 -3 11
-69 0 2 10 11
-130 11 -11 -21 11
165 5 -1 -2 11
17 4 -11 -14 10
-184 4 -36 -59 10
83 0 -29 -73 10
115 19 41 100 10
-173 2 0 24 10
27 26 -32 4 10
184 31 11 34 10
-125 24 -25 -19 10
-82 2 -19 40 9
190 12 -31 -10 9
-59 -1 9 -10 9
-138 15 25 18 9
226 83 -15 27 9
62 25 5 20 9
-177 16 -5 1 9
111 23 3 -7 8
130 13 -6 -6 8
-157 11 8 -9 8
-9 -16 -16 -6 8
200 19 23 11 8
-120 0 -7 -1 8
-120 0 -9 10 7
186 3 -25 -17 7
-23 9 -25 -36 7
-167 12 35 27 7
166 29 -50 -7 7
74 15 1 54 7
-172 17 -16 16 7
58 -5 -23 -28 7
148 10 10 30 6
-144 7 -7 2 6
-37 11 -7 7 6
211 22 -7 -2 6
-79 5 -6 -5 6
-139 -6 -61 -19 6
169 4 -81 -21 6
18 10 -120 -19 6
-153 18 -64 14 6
123 8 -14 3 6
95 5 53 22 5
-174 13 98 36 5
24 9 103 54 5
161 13 47 5 5
-129 13 -35 -21 5
-67 13 -59 13 5
211 29 -4 15 6
-50 -3 119 25 6
-116 9 96 -8 6
158 4 -24 -39 6
38 8 -105 -31 6
-171 8 -87 4 6
89 8 3 -8 6
111 15 62 61 6
-150 13 31 11 7
12 8 41 39 7
171 21 -51 -9 7
-113 9 -56 -4 8
-93 3 76 31 8
194 21 152 36 9
-9 15 43 -14 9
-129 3 -107 -55 10
183 33 -138 17 11
76 19 -219 -27 11
-149 18 -280 -4 12
101 17 -267 -33 13
129 6 100 69 13
-152 12 339 83 14
-43 -1 357 53 15
178 12 270 49 15
-115 11 136 -1 16
-116 5 -8 -8 17
176 15 -102 -9 18
-11 4 -335 -39 19
-148 -10 -237 -13 20
142 16 79 9 21
89 31 169 37 22
-165 26 -23 -24 23
62 9 -105 9 24
167 23 -106 -20 25
-132 31 173 62 26
-25 17 -39 16 27
191 18 76 35 28
-70 17 53 -1 29
-117 24 55 8 30
175 17 -31 -23 31
73 74 -259 -22 33
-147 31 -226 -7 34
118 12 -211 -24 35
68 -29 -441 -59 36
-217 -35 9 -21 37
7 -1 3 -45 38
137 -19 410 -9 39
-157 -29 749 159 41
-103 -21 625 65 42
202 24 -48 -78 43
-39 39 -569 -154 44
-97 -1 -281 24 45
170 -19 209 151 46
59 20 338 122 48
-148 43 17 32 49
150 82 -183 23 50
125 33 -291 24 51
-137 29 -93 49 53
1 4 -104 -39 54
143 -13 -104 -55 55
-123 -21 -97 -73 56
-122 -14 188 79 57
115 -27 316 22 59
-63 -10 253 24 60
-128 13 -241 -95 61
124 17 -420 -43 62
39 3 -160 -1 63
-173 -4 233 21 64
51 -1 473 106 65
120 -7 49 -70 66
-145 3 -317 -109 67
-9 -5 -173 -25 68
216 64 177 118 69
-15 80 87 133 70
-8 92 -243 63 71
217 42 -203 -46 72
6 16 19 7 73
-171 -16 127 -45 74
96 -11 6 -16 75
26 -23 81 7 76
-237 -58 266 15 77
35 -15 -26 -40 78
137 4 -243 -27 78
-161 -3 -163 3 79
-33 -24 252 54 80
165 8 286 -10 81
-81 21 50 -29 82
-82 1 -171 -29 83
240 67 -590 -20 83
37 90 -175 121 84
-196 -15 -150 -11 85
160 14 356 57 86
101 -1 461 55 87
-160 -10 -314 -115 87
32 -17 -157 -79 88
131 -5 226 14 89
-193 -28 383 23 90
-88 0 23 16 90
206 -16 -584 -102 91
-89 -1 -161 -6 92
-191 -50 -191 -115 92
157 -20 129 27 93
29 34 415 165 94
-174 32 -118 -63 95
117 -1 -220 -72 95
111 -33 -107 -97 96
-155 44 166 136 97
-5 20 110 52 97
211 0 -279 -55 98
-135 13 13 -7 99
-57 24 44 30 99
180 13 -255 -28 100
-8 23 45 -5 101
-177 17 487 89 102
201 64 -98 0 102
49 -34 -291 -90 103
-208 -9 -24 3 104
55 -10 72 -34 104
221 74 -95 48 105
-131 33 -185 43 105
36 74 512 120 106
235 52 158 56 107
-138 -58 -955 -317 107
-127 -11 -291 13 108
261 100 552 248 109
22 75 370 114 109
-83 73 -170 -47 110
189 -46 114 64 110
80 23 261 13 111
-249 -49 -45 8 111
15 -32 -533 -165 112
141 0 -283 -3 112
-166 19 266 139 113
-28 46 82 -50 113
163 16 307 140 114
-75 -22 -387 -222 114
-186 -64 -36 -117 115
211 80 421 296 115
31 -9 -121 -93 115
-159 11 67 125 116
131 22 71 17 116
69 -32 -484 -196 117
-156 48 -47 42 117
47 88 661 355 118
184 67 128 29 118
-143 28 326 121 118
-39 -2 -280 -134 119
139 -75 -363 -248 119
-115 -57 -337 -125 120
-90 48 132 151 120
153 15 250 111 120
57 109 573 271 121
-207 -62 -609 -298 121
110 -45 -419 -145 122
74 -32 328 150 122
-138 93 603 224 122
-25 -42 -474 -233 123
215 21 -230 -8 123
-141 13 -69 8 123
-95 -2 -123 -56 123
197 11 35 19 123
3 61 62 59 124
-155 17 -58 12 124
163 -6 -233 -82 124
82 27 167 97 124
-191 5 202 82 124
76 3 49 7 124
175 35 -17 65 124
-174 15 -16 43 124
-7 25 11 15 124
212 17 -52 -47 124
-112 -10 -91 -71 123
-114 9 97 24 123
220 36 -80 -23 123
-10 12 -125 -7 123
-171 21 -36 37 123
177 16 3 29 123
107 31 140 39 123
-197 28 89 57 122
86 34 40 4 122
188 44 130 87 122
-171 15 38 4 122
-49 -23 -65 -34 122
209 11 -109 -33 121
-147 23 39 27 121
-81 32 96 30 121
195 11 -31 -10 120
38 1 -201 -57 120
-204 5 -62 -15 120
115 -4 -111 -50 119
86 -5 -41 20 119
-229 11 5 10 119
45 25 93 65 118
159 30 70 48 118
-148 14 32 13 117
-40 14 17 -1 117
208 10 30 -16 116
-93 -12 -78 -86 116
-141 27 52 21 115
159 28 32 20 115
30 25 110 56 115
-167 17 -87 -28 114
89 -7 -200 -72 113
132 3 -76 -14 113
-193 8 92 69 112
-5 5 34 22 112
193 11 -88 8 111
-107 8 -65 5 111
-97 -12 -80 -48 110
159 5 87 21 109
-8 25 152 94 109
-139 45 101 75 108
201 33 69 68 107
87 18 -39 -29 107
-161 22 0 -16 106
46 -10 -6 -20 106
155 15 84 32 105
-166 -10 -54 -16 104
-50 -13 -42 19 104
167 -11 -127 -47 103
-115 1 -125 -61 102
-64 52 112 77 102
196 51 71 79 101
34 31 -29 14 100
-157 -33 -280 -121 99
79 -38 -165 -61 99
62 -5 174 84 98
-175 11 250 86 97
56 38 174 69 97
184 35 -67 -21 96
-119 11 -92 -5 95
-49 3 41 10 94
204 11 81 27 94
-95 -1 46 7 93
-136 -5 -17 -5 92
155 -14 -90 -42 91
3 -25 -96 -55 91
-211 -33 -199 -68 90
79 -15 -85 -36 89
79 0 10 25 88
-165 -5 -5 -12 88
31 8 -61 19 87
173 15 -112 -24 86
-81 34 98 42 85
-81 3 187 49 84
177 10 141 25 84
-51 2 10 -1 83
-165 -7 -95 -19 82
161 10 -1 26 81
56 23 56 30 80
-167 14 15 16 80
96 16 -15 10 79
156 27 -115 -18 78
-164 27 -201 -15 77
19 32 -227 -1 76
200 26 -88 1 76
-78 2 80 -9 75
-70 12 207 26 74
210 32 181 51 73
-40 12 119 31 73
-149 -13 46 5 72
97 -32 -30 -44 71
117 39 -23 31 70
-185 2 -15 9 69
70 21 26 20 68
125 -30 -96 -44 67
-207 -47 -235 -71 67
-42 6 -95 0 66
193 25 -29 7 65
-80 9 45 15 64
-104 4 -3 1 63
160 -16 -105 -35 62
-9 -5 -86 -18 61
-182 0 -30 -1 60
113 -17 89 29 60
101 22 156 56 59
-151 35 74 22 58
49 38 32 17 57
187 37 -43 38 56
-134 8 50 11 55
-13 33 -7 30 54
215 24 -85 -5 54
-55 21 -23 21 53
-120 6 103 32 52
162 20 136 20 51
30 13 15 -10 51
-181 -1 -110 -19 50
71 -21 -95 -17 49
112 7 -7 15 49
-150 28 -60 -8 48
12 -9 -102 -21 47
215 48 -79 31 47
-113 11 68 21 46
-53 25 115 36 45
204 21 108 35 45
-43 5 48 7 44
-152 12 -66 -18 44
141 -3 -46 -5 43
48 13 1 16 43
-171 9 47 20 42
67 -16 52 -12 42
117 22 12 0 41
-167 9 -49 -6 41
15 12 -48 5 40
186 18 -9 15 40
-100 15 -19 10 39
-62 31 -2 29 39
164 13 -16 8 38
10 22 -5 26 38
-155 8 -15 6 37
132 4 -7 -4 37
82 2 3 1 36
-191 -13 -5 -9 36
61 19 3 18 36
166 10 15 17 35
-155 18 -3 6 35
-16 18 5 17 34
171 -9 -22 -5 34
-87 5 0 2 33
-132 -2 -18 -8 33
188 -7 -13 -11 33
-3 5 -15 -1 32
-158 14 5 5 32
129 12 1 15 31
102 18 2 8 31
-175 3 -6 -3 30
35 15 3 1 30
164 5 1 5 30
-141 8 -9 14 29
-56 4 -4 11 29
193 14 3 16 29
-51 23 13 18 28
-113 28 33 43 28
171 11 -11 7 28
57 33 4 24 27
-166 9 -27 -5 27
109 9 -7 31 27
125 10 3 4 26
-167 6 24 5 26
8 5 -16 -8 26
178 23 17 54 26
-113 8 -44 -23 25
-77 10 -10 1 25
184 10 -8 1 25
-31 13 -8 -5 24
-151 1 -13 11 24
162 20 4 11 24
55 9 -10 -7 24
-181 7 8 3 23
69 -3 -5 -19 23
135 8 7 29 23
-149 14 -19 -8 23
-12 -1 -17 -13 22
171 -8 -21 -12 22
-97 16 5 24 22
-104 9 -9 14 22
199 26 -21 14 21
-4 11 -5 1 21
-147 25 24 27 21
140 20 -15 -15 20
78 16 11 -10 20
-178 6 9 11 20
58 14 2 28 19
158 16 2 21 19
-145 1 -24 -11 19
-40 -1 -31 -26 18
173 13 17 31 18
-75 5 -16 14 18
-89 33 -3 4 17
170 16 -19 -10 17
19 20 16 34 17
-169 -5 -24 -33 17
105 8 36 33 16
85 0 -28 -13 16
-149 17 8 22 16
35 8 -27 -2 15
154 10 27 16 15
-125 5 7 19 15
-66 8 -6 -2 15
178 0 -31 -29 14
-56 5 -17 -17 14
-134 -2 -9 -30 14
150 5 25 15 13
41 17 -14 13 13
-174 2 -21 -23 13
93 13 5 51 12
121 19 -25 14 12
-173 1 -17 -5 12
19 19 -20 -6 12
170 16 21 28 11
-124 0 4 -3 11
-70 7 15 6 11
179 12 -18 -4 10
-25 20 -8 12 10
-134 20 19 29 10
142 10 -11 -7 10
63 32 19 32 9
-165 11 -35 -36 9
68 2 28 25 9
147 8 -8 -12 9
-145 21 48 48 8
-25 -6 -53 -19 8
185 10 25 49 8
-78 31 -24 29 8
-112 2 -11 -6 8
173 -4 11 3 8
3 13 1 -7 7
-159 10 5 3 7
142 15 -16 32 7
117 56 30 51 7
-185 1 -21 -19 7
56 21 20 24 7
164 18 -35 -22 7
-161 -10 -25 0 7
-67 -3 -12 -16 6
174 -3 -3 -12 6
-53 25 3 7 6
-123 11 -16 11 6
171 12 -43 -7 6
39 22 -26 17 6
-195 -17 -45 1 6
123 22 16 32 6
119 18 -1 15 6
-176 12 -60 -27 6
30 10 -115 -26 6
177 26 -86 13 6
-134 6 69 24 6
-48 19 52 28 6
190 9 90 -1 6
-56 15 2 0 6
-140 7 39 14 6
165 13 94 31 6
30 15 13 2 6
-165 11 -49 10 6
104 9 86 35 6
126 13 165 29 6
-147 9 178 13 6
3 13 -59 -31 7
181 17 -202 -27 7
-114 6 -192 -12 7
-69 32 -100 7 8
181 15 -1 36 8
-11 22 -32 18 8
-140 11 0 -5 9
143 18 96 -3 9
25 9 49 10 10
-133 35 -2 10 10
88 18 -133 -11 11
173 28 -144 -1 11
-97 14 34 20 12
-40 8 -8 72 13
182 21 105 50 13
-89 5 168 46 14
-115 -3 53 -33 14
164 -5 29 -28 15
-15 0 -106 -3 16
-179 -14 -21 -1 16
119 20 182 91 17
83 25 50 17 18
-187 2 120 15 19
33 -2 -37 -31 19
163 10 -181 -41 20
-131 15 -285 -48 21
-37 13 -238 -23 22
206 19 51 31 23
-40 3 100 24 24
-129 4 -57 -20 25
168 18 -109 -20 25
37 21 40 5 26
-196 -1 303 76 27
85 3 202 22 28
97 -5 40 41 29
-176 7 -166 2 30
27 14 -184 -44 31
172 26 -63 34 32
-141 -12 -21 -55 33
-81 -7 -41 -32 34
209 40 156 47 36
0 55 187 103 37
-87 72 93 47 38
192 62 -109 14 39
85 39 105 83 40
-171 19 316 114 41
100 -8 43 40 42
118 -18 -448 -114 44
-187 -10 -519 -140 45
-32 -11 -24 -8 46
170 0 297 83 47
-70 22 195 75 48
-50 43 -159 -20 49
185 29 -360 -59 51
-33 -5 -29 -17 52
-193 -45 356 23 53
80 -27 435 41 54
39 -13 12 -73 55
-174 -14 -193 -101 57
71 34 -274 17 58
153 22 -131 40 59
-106 30 8 71 60
-18 12 116 0 61
137 8 201 17 63
-64 16 105 41 64
-143 -36 -312 -75 65
135 -21 -335 -101 66
11 20 -150 -31 67
-147 2 254 46 68
131 28 496 176 69
112 5 284 32 70
-135 25 -93 -5 71
52 38 -354 -99 73
200 64 -304 43 74
-89 21 -299 -27 75
-24 33 59 19 76
171 45 369 86 77
-63 44 253 90 78
-177 -21 -53 -61 79
95 -76 -203 -111 80
15 -26 60 23 81
-180 -37 -281 -96 82
93 -15 -489 -129 83
86 -15 -127 -83 83
-219 -8 392 98 84
6 26 446 105 85
188 17 -107 -39 86
-117 -12 -234 -89 87
-61 12 141 107 88
202 11 15 47 89
-27 33 -330 -56 90
-135 -23 -33 -12 91
165 55 590 180 91
36 44 113 -3 92
-197 -4 -432 -157 93
109 -1 -392 -90 94
141 9 226 68 95
-164 57 400 120 96
28 33 65 38 96
219 25 -127 -15 97
-156 -27 -187 -98 98
-137 -33 -293 -130 99
147 -36 -127 -25 99
-40 -60 -86 -75 100
-239 -77 42 -103 101
109 -15 -84 -13 101
116 22 38 58 102
-153 46 106 89 103
115 42 236 41 103
155 31 75 27 104
-212 8 -307 -72 104
-46 1 71 192 105
241 19 46 58 105
-75 60 190 103 106
-60 21 -51 10 106
215 22 -50 -24 107
33 0 269 -18 107
-226 -17 -82 -128 108
81 -65 -518 -241 108
97 -58 -510 -99 109
-215 -16 16 95 109
21 21 203 138 110
145 43 447 174 110
-112 87 633 220 110
-9 50 69 -1 111
180 -48 -422 -232 111
-47 -7 -79 -27 112
-154 -19 -1 51 112
149 40 -335 -72 113
43 12 -194 8 113
-141 19 180 -65 114
78 15 616 155 114
111 -21 -246 -102 115
-162 -26 -241 -33 115
-24 -6 40 11 116
195 47 84 62 116
-123 -40 -269 -148 116
-36 9 -246 -96 117
198 39 447 173 117
-52 28 76 -16 118
-165 -45 -720 -169 118
159 -5 145 160 119
91 69 343 36 119
-193 16 -18 -70 119
104 27 22 19 120
118 -34 -350 -121 120
-182 25 270 200 120
-1 41 109 7 121
215 9 -5 -12 121
-103 48 88 61 121
-147 -11 -105 -61 122
172 -20 -150 -62 122
-20 -7 -30 -23 122
-185 16 96 71 122
149 1 -165 -83 123
68 -36 -262 -143 123
-194 -1 -7 4 123
33 -9 32 16 123
168 -8 -79 -40 123
-179 -4 -31 7 123
-1 34 -64 -9 123
179 -53 -210 -78 123
-29 57 89 41 123
-140 -27 -100 -41 123
214 33 98 43 123
43 47 184 173 123
-167 43 116 121 123
147 40 170 90 123
127 25 17 -27 123
-196 0 62 -25 122
27 0 -28 -26 122
205 40 -109 -21 122
-129 21 -34 -1 122
-57 20 16 5 121
210 26 -14 3 121
-76 11 -58 -15 121
-177 -15 -59 -26 121
135 -39 -307 -169 120
54 10 -113 -23 120
-160 55 192 147 120
131 41 36 85 119
154 33 107 77 119
-193 -3 88 19 118
-16 16 158 36 118
169 16 159 48 117
-122 -4 -162 -88 117
-125 -17 -145 -69 116
197 4 2 -4 116
-41 8 -73 -33 115
-180 -7 -97 -38 115
133 5 -9 9 114
51 8 -13 2 114
-204 -7 -110 -64 113
36 -25 -135 -54 112
138 20 44 58 112
-176 2 -118 -26 111
-3 38 -54 23 110
170 27 32 74 109
-45 40 33 64 109
-100 17 158 78 108
254 23 113 13 107
65 52 190 64 106
-155 48 244 120 105
111 6 9 13 104
81 -17 -93 -43 104
-193 -11 -141 -68 103
35 -6 -116 -47 102
129 -31 -129 -64 101
-162 -19 -102 -45 100
-96 -1 -82 -7 99
226 44 -14 43 99
-39 19 -82 -16 98
-87 3 -115 -43 97
219 29 -77 -30 96
10 -11 -100 -41 95
-173 9 159 80 94
85 -10 197 61 93
136 40 260 102 92
-145 48 228 113 91
48 57 64 74 90
185 24 -54 11 89
-135 -11 -121 -59 88
-101 -17 -82 -25 87
157 -12 -73 -40 86
-61 -10 -94 -46 85
-188 -32 -129 -60 84
114 -22 -164 -52 83
42 -11 -120 -30 82
-181 -23 -185 -54 81
82 -36 -205 -108 80
116 -4 45 5 79
-187 16 290 138 78
5 23 317 161 77
195 29 203 105 76
-102 3 -30 -29 75
-92 8 -29 -24 75
171 13 -16 -22 74
-9 15 -48 -21 73
-171 -6 -78 -52 72
135 6 -55 -23 71
89 20 -51 -5 70
-167 29 -57 3 70
127 67 -100 32 69
193 66 -70 52 68
-113 18 -72 15 67
-35 -12 -41 -29 66
130 -29 -56 -29 65
-92 -11 143 -3 65
-124 -2 238 34 64
203 34 182 33 63
10 9 -33 -18 62
-178 -3 -88 -17 61
106 3 -17 -1 60
80 2 -12 7 59
-191 2 -64 -13 59
29 8 -18 22 58
152 13 -15 17 57
-115 22 -41 15 56
-47 3 -117 -22 55
170 -8 -217 -61 55
-61 2 -172 -6 54
-147 -7 109 37 53
190 28 234 63 52
37 15 201 27 52
-183 -8 1 -40 51
51 -53 -102 -64 50
135 21 19 25 50
-156 10 30 27 49
15 20 7 16 48
205 42 -1 32 48
-115 22 -7 15 47
-58 22 28 22 46
195 13 29 13 46
-14 32 -6 3 45
-137 25 -60 1 45
149 19 -34 12 44
62 17 -19 5 43
-105 49 -28 28 43
78 8 -25 7 42
115 14 -3 13 42
-124 21 44 17 41
-21 2 33 17 41
186 35 32 27 40
-87 1 -23 1 40
-95 7 -37 -7 39
192 13 -13 17 39
-30 4 -17 7 38
-161 -27 -31 -23 38
102 -19 -33 -24 37
103 17 -16 4 36
-156 26 -12 19 36
75 29 46 42 35
159 13 83 15 35
-143 25 70 19 34
18 55 63 37 34
178 15 -29 3 33
-56 23 -15 16 33
-133 0 -28 -6 32
175 11 -24 5 32
24 9 -11 17 31
-158 2 -27 -2 31
110 8 -14 2 30
95 0 -16 3 30
-208 -26 -33 -19 29
19 -1 -14 -13 29
173 26 23 34 29
-102 32 -5 3 28
-38 17 33 38 28
183 10 -12 6 27
-65 3 -8 21 27
-134 7 -13 3 27
167 16 -2 -2 26
1 -23 -33 -22 26
-196 -21 -86 -21 26
68 -16 -110 -33 26
138 27 -56 24 25
-185 -20 30 5 25
32 34 100 22 25
177 16 94 14 25
-115 8 59 -3 24
-101 -5 32 -3 24
179 -1 4 -9 24
-32 13 -28 -8 24
-146 6 -47 -6 24
171 41 5 35 24
107 50 -1 9 23
-159 29 35 60 23
94 21 -5 19 23
115 -13 -48 -13 23
-142 19 -25 6 23
-15 12 -19 19 23
204 35 -2 30 23
-89 2 -11 -11 23
-106 7 2 15 22
160 -7 -26 -9 22
-14 -12 -20 1 22
-185 -19 -29 -12 22
127 1 -24 -33 22
85 17 19 9 22
-185 -9 -21 -28 21
34 3 -31 -19 21
175 34 31 51 21
-139 8 -33 0 20
-16 16 11 39 20
182 -1 -33 -5 20
-87 -9 -13 -11 19
-160 -12 -27 -5 19
181 23 13 -1 19
16 1 21 -1 18
-165 14 -23 -23 18
99 7 -8 3 18
93 -9 -44 -33 17
-176 7 0 0 17
5 9 -12 -4 17
197 41 30 28 16
-99 28 23 47 16
-73 15 -11 -3 16
200 28 -17 11 15
-53 -2 -12 -2 15
-131 3 9 32 15
155 11 -47 14 15
53 3 -9 11 14
-173 -17 -24 -8 14
74 -3 -17 -13 14
118 3 -13 -2 13
-152 10 1 6 13
-10 -4 3 -12 13
177 18 63 29 12
-126 -9 -43 -18 12
-91 2 -33 -52 12
189 28 65 97 12
-36 -3 -30 -30 11
-162 11 -22 -25 11
165 32 -4 45 11
69 11 19 16 11
-141 28 -9 28 10
60 2 -8 1 10
148 11 -9 -25 10
-152 7 -20 5 10
-23 2 7 18 9
188 21 17 49 9
-65 31 -2 -1 9
-102 6 -4 -10 9
172 11 11 -13 8
10 15 1 12 8
-179 -10 -33 -62 8
117 14 23 9 8
95 14 -59 -37 8
-146 31 21 62 7
49 17 -28 29 7
175 26 -37 -16 7
-138 -2 14 -29 7
-30 31 4 19 7
197 30 5 34 6
-78 22 -3 -25 6
-154 -26 -35 -68 6
164 4 -23 5 6
29 11 31 58 6
-179 -14 -75 -28 5
86 -1 6 0 5
95 -7 -19 -9 5
-184 -12 -26 -15 5
3 -6 -21 -5 5
163 5 -9 3 4
-134 -1 -18 2 4
-91 -8 -15 13 4
196 28 -7 2 4
-33 12 -22 -4 4
-134 13 -12 -31 4
165 21 -47 2 4
65 19 -70 12 4
-172 12 -153 -20 3
74 -3 -104 14 3
139 3 31 42 3
-159 6 74 3 3
-2 24 59 4 3
183 4 -53 -14 3
-87 11 -3 53 3
-93 19 210 50 3
182 21 273 49 3
-5 19 152 -2 4
-147 12 -55 -31 4
144 21 -160 -22 4
83 9 -76 14 4
-165 13 40 25 4
54 15 31 5 5
145 15 11 -12 5
-135 11 -34 -1 5
-40 8 19 22 6
180 15 -153 -6 6
-60 15 -201 -7 7
-101 9 -119 11 7
170 31 74 42 8
21 15 169 34 9
-158 19 9 -13 9
125 26 -93 -11 10
122 43 83 57 11
-95 80 149 107 12
77 39 102 34 12
199 48 122 75 13
-145 -18 112 -21 14
-68 6 41 18 15
175 18 -214 -35 16
-21 23 -347 -42 17
-107 -4 -113 8 18
141 -4 282 25 19
19 17 315 73 20
-186 -7 -42 -57 21
97 6 -329 -72 22
101 -8 -303 -36 23
-179 -21 -120 -25 24
-19 -10 112 97 25
161 13 131 32 26
-114 5 179 -45 28
-104 -8 78 -65 29
163 -7 -97 -36 30
-39 -2 -177 -25 31
-146 15 -75 57 32
169 23 21 10 34
90 21 -170 -83 35
-141 26 -216 -57 36
68 11 253 104 37
115 -12 378 131 39
-203 -3 168 18 40
-70 -11 24 -36 41
165 -1 113 50 42
-72 0 -150 -29 44
-111 4 -536 -102 45
163 0 -473 -86 46
11 -6 276 54 48
-164 4 574 114 49
153 41 264 7 50
95 33 -117 19 51
-154 28 -221 13 53
34 -6 -102 -15 54
192 24 -298 -35 55
-152 -15 -644 -81 56
-53 1 30 -4 57
161 -19 538 149 59
-55 16 535 -46 60
-128 25 295 47 61
147 12 -175 -18 62
22 6 -21 21 63
-170 2 -30 -19 64
112 8 -227 -8 65
111 42 -68 41 67
-161 30 -1 -15 68
52 23 -25 -11 69
175 12 -618 -161 70
-101 19 -45 -21 71
-57 7 490 143 72
163 0 486 43 73
12 57 236 78 74
-31 121 226 253 75
238 113 -145 -29 77
83 13 -315 -131 78
-187 -34 -136 -28 79
28 -13 11 98 80
108 37 -1 96 81
-181 -48 -500 -197 82
-13 -78 -316 -156 83
147 -17 135 -19 84
-150 -44 -71 -83 85
-92 -39 110 -86 86
128 -8 751 263 87
-57 -25 159 52 88
-201 -42 -193 -53 89
115 -31 -470 -175 90
55 -25 -352 -136 91
-222 -47 -6 -20 91
43 4 -88 -40 92
129 -11 275 88 93
-140 56 541 215 94
-22 -11 -246 -100 95
254 43 -193 -58 96
-67 67 306 197 97
-83 58 79 44 98
207 80 77 53 99
36 -1 -793 -170 100
-146 -11 -371 -113 101
166 11 -55 56 102
65 -11 -24 -87 102
-180 27 630 231 103
56 3 223 57 104
159 -27 -443 -94 105
-162 -55 -460 -173 106
-44 37 306 207 106
159 -19 283 50 107
-68 54 601 121 108
-169 27 276 29 109
213 76 206 78 110
13 6 -408 -145 110
-189 -27 -412 -146 111
143 23 -13 39 112
56 -54 -181 -106 113
-207 -40 -206 -52 113
52 11 -59 13 114
192 62 379 205 115
-112 37 58 100 115
-120 -97 -707 -240 116
205 -27 -263 -110 117
-94 -14 240 -22 117
-157 -14 128 -74 118
218 73 192 218 118
35 32 96 59 118
-218 17 -34 30 119
87 -35 -160 -149 119
144 39 192 67 119
-188 35 186 91 120
3 18 7 12 120
208 -21 -194 -120 120
-113 1 -13 -33 120
-84 37 126 78 121
176 -19 -73 -37 121
-11 7 -253 -47 121
-179 -4 -180 -16 121
136 -14 55 -15 121
101 21 138 70 121
-168 25 44 38 121
51 7 -122 3 121
153 -22 -386 -155 121
-173 -19 -53 3 121
-12 76 490 213 121
209 69 349 144 121
-50 47 197 88 121
-107 -9 -305 -133 121
153 -13 -235 -72 121
-43 31 62 32 121
-122 19 49 23 121
164 30 95 37 120
142 29 30 22 120
-135 14 -19 -4 120
22 5 -56 -20 120
146 12 -72 -17 119
-128 -28 -178 -90 119
-53 16 -29 8 119
177 7 -213 -49 118
-52 55 75 137 118
-154 11 186 55 118
217 47 300 81 117
29 28 216 43 117
-192 13 -65 -23 116
97 0 -99 -30 116
123 19 -19 11 115
-168 22 8 0 115
-4 11 13 23 115
189 18 -47 2 114
-153 -35 -311 -159 114
-124 -25 -131 -37 113
178 19 159 92 113
-35 30 157 92 112
-112 29 46 59 112
185 2 -224 -68 111
89 3 -85 -27 110
-204 2 67 57 110
65 24 82 -22 109
160 48 154 59 109
-166 21 122 10 108
-12 6 -19 -2 107
199 3 -251 -66 107
-119 2 -145 -43 106
-105 14 129 77 105
223 13 115 32 105
-13 19 148 49 104
-185 -11 -107 -75 103
100 -26 -219 -101 102
113 50 110 112 102
-124 32 44 69 101
113 49 95 95 100
209 5 -60 21 99
-158 13 -50 21 99
-31 48 72 27 98
253 65 69 59 97
-11 58 51 26 96
-87 68 109 73 96
157 17 52 14 95
20 1 -89 -33 94
-202 -24 -139 -57 93
90 -9 -45 -25 93
108 13 -44 22 92
-185 -8 -81 -10 91
-15 -52 -239 -87 90
109 -81 -183 -139 89
-195 -55 0 -53 88
-120 -32 174 40 87
143 -13 258 97 86
-35 20 168 78 86
-97 34 53 19 85
184 17 -90 -19 84
40 7 -111 -37 83
-191 -17 -69 -42 82
109 22 -21 -11 81
147 39 -31 14 81
-98 44 -69 11 80
10 21 -63 -7 79
178 19 -44 2 78
-103 18 -13 -4 77
-101 1 -83 2 76
185 26 -134 -1 75
17 41 -73 32 75
-157 -3 94 31 74
137 19 279 57 73
32 -34 178 9 72
-213 -25 14 0 71
6 -31 -61 -32 70
113 -27 -2 -30 69
-194 -39 -11 -49 68
-74 -10 -68 -43 67
237 24 -73 -14 66
-49 19 -49 -5 66
-70 22 -62 -7 65
176 15 -79 -4 64
11 17 -55 -3 63
-199 -27 -144 -27 62
107 -17 -218 -46 62
79 -8 -64 14 61
-193 -8 108 11 60
16 -17 277 16 59
175 35 191 46 58
-96 45 81 48 57
-55 18 -9 25 57
195 11 -27 13 56
-75 -15 -57 -37 55
-140 -2 33 15 54
163 12 39 18 54
71 47 25 37 53
-190 8 -61 -14 52
104 12 -53 -6 52
103 -3 -58 -18 51
-140 43 -16 14 50
9 3 -31 2 50
239 54 13 40 49
-119 -1 -37 -4 49
-131 -20 -45 -33 48
178 8 -17 0 47
-85 -33 -17 -37 47
-130 9 8 10 46
149 20 -25 -1 45
106 42 42 47 45
-152 35 40 27 44
147 69 99 65 43
161 52 60 32 43
-117 40 2 31 42
-1 10 -32 18 41
172 13 18 36 41
-85 18 43 24 40
-100 0 17 -1 39
161 -1 -10 -5 38
-16 3 -29 -3 38
-158 5 -23 -5 37
112 -2 -28 -5 36
70 -4 -35 -3 36
-210 -26 -46 -28 35
46 5 -13 -1 35
168 35 7 19 34
-146 -9 -26 -15 33
-38 13 -9 6 33
170 14 -5 8 32
-61 9 -4 13 32
-111 3 -3 5 31
147 -4 -11 -4 31
15 5 -5 -13 30
-155 11 -7 -1 30
58 -23 -37 -34 29
106 8 -1 -11 29
-170 -11 -15 -22 29
17 3 -9 -3 28
178 20 -9 -22 28
-105 13 33 30 27
-47 36 -9 25 27
193 33 3 46 27
-18 33 -4 53 26
-130 8 -24 1 26
149 22 29 47 26
55 16 -5 14 25
-164 11 -9 -3 25
85 9 -1 -12 25
158 46 43 29 25
-137 15 27 11 24
13 25 43 41 24
180 21 -1 0 24
-103 11 21 25 24
-69 25 -23 -11 23
185 17 -6 12 23
-18 15 18 63 23
-171 -15 -27 -40 23
136 5 27 29 22
91 23 -3 40 22
-220 -25 -47 -2 22
96 29 1 29 22
159 5 -10 -1 21
-166 -7 -15 -8 21
-65 -26 -33 -10 20
160 -11 -16 -14 20
-89 8 4 3 20
-99 22 13 15 19
201 24 -2 -6 19
19 27 18 21 19
-150 52 46 44 18
163 34 45 35 18
141 50 63 63 18
-128 47 5 20 18
52 20 1 27 17
158 9 -29 -13 17
-165 -30 -34 -55 17
-89 -25 -16 -61 17
148 -24 -66 -29 17
-94 -15 -25 10 16
-131 3 -17 39 16
132 -13 -33 -20 16
34 1 -7 3 16
-120 45 25 38 16
107 40 8 17 16
127 15 13 17 15
-134 23 19 27 15
-12 -10 -27 -30 15
173 31 1 -1 15
-111 7 4 5 15
-66 10 5 39 15
175 18 -20 10 14
-26 23 -14 22 14
-143 -10 -26 -17 14
125 -6 -10 -7 14
45 7 -8 -1 14
-214 -27 -42 -49 14
80 3 4 -16 14
133 18 27 50 14
-134 19 -4 6 14
-5 12 -8 -4 14
188 17 7 7 14
-71 18 31 32 14
-93 4 -10 1 14
170 17 -15 14 14
1 24 1 6 14
-146 10 -10 12 14
115 1 -15 5 14
67 -1 -14 16 14
-147 7 -9 0 14
49 1 -11 -1 14
155 19 9 6 14
-136 7 -8 8 14
-33 2 -58 -9 14
177 17 -109 -11 14
-52 22 -149 -1 14
-118 -3 -50 31 14
159 10 140 48 14
8 14 135 2 14
-167 -1 20 -40 14
111 12 -145 -10 14
112 18 -104 11 14
-172 3 -5 7 14
39 30 183 16 14
167 27 202 44 14
-130 8 251 50 14
-65 0 75 7 14
189 16 -73 -33 14
-49 13 -189 -42 14
-132 8 -194 -13 14
165 11 -32 34 15
49 18 -67 18 15
-173 13 -77 10 15
99 13 -6 -17 15
119 13 114 70 16
-174 -5 114 16 16
-5 2 106 28 17
181 16 93 26 17
-103 11 32 -13 17
-65 19 -136 -31 18
205 33 -193 -29 18
-25 19 -96 -12 19
-128 30 144 68 20
150 14 79 35 20
77 18 -117 -21 21
-174 6 -133 -18 21
70 5 -4 9 22
133 11 117 43 23
-150 18 39 52 23
-11 32 -148 -29 24
181 7 -207 -54 25
-94 19 76 25 25
-109 3 235 53 26
168 17 93 -1 27
-1 20 -91 8 28
-164 15 -161 5 29
101 0 149 61 29
80 -8 210 31 30
-184 5 97 -5 31
24 -3 -156 -52 32
171 3 -99 -33 33
-142 -9 56 8 34
-27 -2 56 13 35
185 6 -111 -33 36
-41 18 -293 -71 37
-121 9 -129 -17 38
167 16 52 3 40
24 28 336 101 41
-158 28 215 54 42
102 27 45 -1 43
114 25 -187 -25 44
-142 5 -243 -42 45
10 1 -130 35 46
178 25 16 48 47
-64 46 56 48 48
-48 25 26 7 49
170 5 -47 -93 51
-42 -19 -25 -58 52
-150 6 211 82 53
129 14 144 64 54
28 21 -77 34 55
-175 -2 -109 -8 56
91 5 -99 33 57
143 24 15 1 58
-107 19 79 2 59
-9 -18 -95 -129 60
149 0 71 -17 61
-63 36 225 95 62
-73 39 -227 42 63
181 44 -290 -22 64
-25 -17 -13 51 65
-183 -14 243 3 66
157 39 435 108 67
117 88 70 31 68
-113 77 -67 39 69
71 26 -208 19 70
110 -10 -88 7 71
-204 -61 -11 -25 72
-8 -17 2 -64 73
166 -8 157 29 74
-67 36 65 6 75
-136 -34 -73 -40 75
125 -29 -309 -87 76
-3 -3 -480 -46 77
-146 -3 -76 -24 78
104 15 439 104 79
72 -12 421 33 80
-220 -23 -224 -74 81
28 -23 -442 -145 81
185 24 -50 53 82
-85 30 362 83 83
-49 48 42 8 84
181 1 -43 -32 85
-9 57 194 56 86
-95 70 256 93 86
177 49 -164 24 87
25 -19 -612 -175 88
-215 -63 -247 -109 89
42 5 596 227 90
128 16 227 75 91
-179 -29 -454 -160 91
-27 -49 -295 -174 92
151 10 333 105 93
-114 2 -257 -36 94
13 61 27 120 94
227 95 463 152 95
50 72 275 79 96
-148 12 -24 -27 97
178 10 -337 -64 98
124 72 99 105 99
-161 79 345 168 99
80 19 -361 -120 100
115 -77 -516 -241 101
-209 -59 114 -4 102
-80 -49 107 -30 103
166 -47 -614 -114 103
-83 11 -254 -37 104
-69 97 397 176 105
211 27 -17 16 106
-45 -70 -109 -96 106
-200 -59 142 27 107
171 128 978 354 108
162 136 725 191 109
-175 31 -370 -191 109
31 -72 -797 -308 110
153 -27 -263 -59 111
-144 -11 -97 69 112
-34 14 28 98 112
175 -31 -125 -197 113
-107 -25 135 -106 114
-137 44 329 34 114
172 19 163 85 115
-15 -40 -405 -123 116
-185 -29 -221 -7 116
47 -64 -454 -53 117
97 50 -211 24 118
-210 -52 -29 -22 118
85 90 606 209 119
201 22 27 -38 119
-99 44 227 136 120
-33 63 47 -97 120
108 -33 344 156 120
-15 40 217 17 121
-148 -31 -327 -113 121
180 65 227 72 122
53 48 173 34 122
-188 14 69 31 122
84 -52 -502 -107 123
128 -32 -489 -170 123
-206 -68 -270 -163 123
-74 -120 -321 -145 124
213 62 345 112 124
-114 19 69 32 124
-40 73 238 153 124
191 -29 -360 -59 124
-7 23 24 24 124
-191 -34 88 -41 124
158 19 -11 -73 124
130 75 263 131 124
-163 59 0 -12 124
77 58 37 97 124
174 19 -9 -14 124
-180 -29 -114 -83 124
-44 9 118 41 124
199 3 -7 -39 124
-89 -32 -311 -85 124
-134 6 -78 -5 124
186 13 111 43 124
17 31 149 69 124
-168 13 5 1 123
135 -6 -112 -85 123
90 -9 -197 -42 123
-182 35 173 92 123
53 13 20 45 123
192 57 206 128 123
-142 21 -31 5 122
-62 25 0 25 122
219 38 27 23 122
-56 24 96 47 122
-146 15 -73 -8 121
224 41 -46 3 121
42 22 -131 -7 121
-178 16 53 18 120
120 15 -83 11 120
121 15 28 42 120
-198 -4 6 -31 119
-12 -17 107 8 119
147 -7 -24 -94 119
-162 0 -91 -17 118
-63 25 -33 76 118
213 11 81 48 117
-27 31 99 41 117
-156 1 -169 -59 116
139 2 -38 -7 116
7 1 107 71 115
-151 32 39 56 115
109 40 123 53 114
153 31 -74 3 114
-193 -20 -43 -63 113
-37 -15 -29 -55 113
177 4 -3 -48 112
-107 7 -25 -23 112
-102 -16 -195 -47 111
171 -5 -36 -19 111
-11 46 161 118 110
-137 32 28 18 110
157 36 40 68 109
100 -4 -177 -77 109
-187 -1 5 -41 108
60 8 95 15 107
189 39 155 96 107
-122 47 15 45 106
-11 31 -20 30 106
204 8 -37 21 105
-102 -2 -79 -51 104
-143 -1 -91 -24 104
173 -1 -86 -53 103
31 22 4 33 102
-148 11 -234 -49 102
104 -15 -115 -35 101
91 -7 60 0 100
-199 -8 37 -13 100
11 21 224 114 99
164 6 62 27 98
-133 -5 105 25 98
-53 14 74 9 97
170 2 -52 -23 96
-69 0 -37 -14 95
-153 -6 -17 -16 95
160 10 -62 -5 94
59 22 -102 -14 93
-167 29 -74 -3 93
92 13 -41 10 92
121 16 -16 23 91
-158 1 -54 6 91
17 0 -75 -27 90
172 -2 -81 -12 89
-120 7 -25 19 88
-91 2 -72 0 88
170 -6 53 8 87
-56 -31 124 10 86
-195 -45 72 -29 85
103 -5 59 -24 84
70 21 77 43 84
-147 33 85 66 83
83 24 6 56 82
175 29 -90 -10 81
-147 -3 -94 -31 81
-17 0 -59 -14 80
183 5 -65 -11 79
-64 13 -53 1 79
-106 9 -49 -3 78
187 15 -63 -6 78
5 7 -83 -40 77
-175 -1 -31 -10 76
129 21 15 35 75
85 2 -60 3 75
-191 -6 -59 45 74
20 -13 25 31 73
162 10 143 11 72
-158 -2 203 13 72
-75 -9 107 -8 71
197 23 -15 7 70
-73 20 -72 8 69
-129 8 -53 -5 69
160 -3 -37 -23 68
1 12 -34 0 67
-162 11 -56 -21 67
119 0 -54 -23 66
149 9 -6 6 66
-158 8 -39 8 65
1 -1 -121 -28 64
184 2 -111 -2 64
-118 12 0 12 63
-85 8 106 50 62
193 25 95 39 62
-51 16 -97 -17 61
-179 -19 -165 -63 60
146 -5 -55 -7 59
48 7 205 53 59
-178 17 165 31 58
94 5 33 -13 57
149 18 -75 -7 56
-136 28 25 39 56
-9 17 51 37 55
192 19 30 21 54
-103 1 -61 -25 54
-107 -1 -85 -19 53
169 15 -78 -6 52
-4 3 -46 3 52
-157 -5 -44 0 51
129 -9 -83 -16 50
88 11 -53 11 50
-179 2 20 10 49
41 -7 24 11 48
168 21 -43 20 48
-134 9 37 9 47
-17 17 127 27 46
189 16 217 55 46
-58 17 68 22 45
-108 22 -77 4 45
169 19 -55 10 44
27 25 6 13 44
-161 10 2 5 43
116 23 -9 13 42
109 24 -32 10 42
-162 6 -31 8 41
24 4 -28 0 41
152 -5 -25 -2 40
-95 17 -3 8 40
-65 4 -15 -5 39
185 16 -17 -9 39
-58 1 -13 -2 38
-137 11 -16 -4 38
184 14 -2 11 37
51 12 -3 8 37
-169 0 -6 -14 36
58 -15 -3 -17 36
133 27 16 3 35
-159 24 -2 -6 35
17 16 3 11 34
187 12 -2 7 34
-119 4 -11 -3 33
-66 15 -3 10 33
193 17 1 12 32
-22 11 -4 1 32
-147 3 -21 -9 31
142 10 -3 5 30
60 -1 -8 -6 30
-176 2 -8 -8 30
89 44 17 17 29
145 12 2 6 29
-145 8 -9 4 28
-14 31 -7 5 28
189 27 7 14 27
-91 11 0 14 27
-105 5 -2 1 27
166 3 -13 -30 26
-2 16 34 29 26
-154 15 -7 -1 25
131 17 5 1 25
83 5 -14 -27 25
-181 1 23 4 25
33 4 14 38 24
154 2 -67 -22 24
-152 -10 -23 7 24
-48 3 -24 9 24
189 13 -13 17 24
-47 29 1 23 23
-115 15 -16 -27 23
170 32 11 9 23
33 15 14 22 23
-161 14 5 13 23
118 15 0 7 23
111 10 2 14 23
-168 10 -1 2 23
23 9 -7 -10 22
171 5 -4 3 22
-112 7 -8 -3 22
-66 -9 -23 -7 22
181 8 -10 -1 22
-30 40 6 9 22
-118 33 4 10 21
139 0 -10 -4 21
59 15 5 13 21
-161 13 3 8 21
83 0 -17 -28 21
151 29 40 27 20
-149 16 42 59 20
-8 8 -21 2 20
172 8 -9 1 20
-101 15 11 13 20
-97 -1 -42 -31 20
180 16 -5 27 20
-7 13 -5 21 20
-157 11 -2 29 19
138 20 -19 8 19
79 21 3 15 19
-148 24 8 6 19
63 9 16 9 19
149 24 15 20 19
-145 6 -3 -2 18
-32 9 -2 1 18
179 17 -9 -3 18
-77 9 -7 -8 18
-117 9 32 23 18
185 26 3 8 17
5 6 -13 2 17
-159 5 -15 2 17
116 8 -2 0 17
105 12 -7 2 17
-167 8 4 -3 17
1 -16 -40 -38 17
240 61 43 57 17
-132 13 -20 9 17
-58 14 -2 25 17
180 -16 -33 -24 17
-47 19 3 -1 16
-137 9 -9 2 16
174 25 0 21 16
37 10 -23 15 16
-179 0 -19 -7 16
93 12 4 9 16
125 17 3 11 16
-185 -10 -23 -15 16
11 14 -8 -6 16
161 3 7 7 16
-93 10 -3 -11 16
-81 11 12 -33 16
191 21 42 42 16
-27 7 -5 60 16
-152 7 -24 21 16
145 13 -29 6 16
67 13 -3 -6 16
-175 -3 -1 -2 16
64 3 -14 1 16
125 4 -18 -7 16
-131 22 4 13 16
-17 9 -15 2 16
166 -1 -13 5 16
-87 31 -3 1 16
-109 2 -1 -2 16
180 7 -14 -25 16
8 13 -8 3 16
-169 -7 -10 23 16
119 10 -21 9 16
85 11 8 21 16
-174 3 -34 -18 16
59 11 -2 15 16
145 9 -20 11 16
-119 19 -8 12 16
-37 24 31 23 16
186 14 -1 -1 16
-79 -3 -26 -9 16
-118 6 -3 3 16
178 29 9 23 16
16 16 2 7 16
-147 16 7 11 16
105 10 -5 3 16
103 13 -5 5 15
-162 6 -5 -2 15
31 7 -3 5 15
150 11 -4 7 15
-97 25 14 26 15
-69 11 -8 9 15
183 7 -9 6 15
-52 8 -22 -9 15
-134 6 -23 -7 15
153 14 -5 5 15
69 24 -12 10 15
-152 5 -32 -4 15
57 -16 -73 -17 15
137 15 3 30 15
-166 0 -9 2 15
14 12 8 1 15
191 24 -40 6 15
-130 -17 -5 5 15
-77 23 49 19 16
178 20 -2 -7 16
-7 19 -39 -2 16
-145 6 1 -5 16
137 13 126 32 16
59 -7 104 -6 16
-174 1 75 11 16
76 22 30 3 16
159 34 21 17 17
-148 9 -30 -7 17
-53 -10 -88 -8 17
196 25 -56 12 18
-51 49 -58 25 18
-81 35 -45 35 18
181 25 -11 28 19
77 57 81 50 19
-149 40 94 30 19
123 27 -39 8 20
152 54 7 64 20
-145 49 105 77 21
56 36 137 56 21
167 19 55 15 21
-101 36 -89 -21 22
-61 16 -138 -23 22
195 21 -55 16 23
-19 45 21 18 23
-139 -15 16 -1 24
122 -28 -40 -33 24
-17 -37 -98 -70 25
-221 -39 -134 -52 25
48 -37 -77 -43 26
80 -11 9 17 26
-178 -25 -227 -99 26
-16 -42 -241 -68 27
159 -17 -22 -44 27
-113 17 289 101 28
-99 -21 174 -9 28
157 -20 -83 -52 29
-75 -41 -224 -66 29
-195 -37 -32 9 30
101 -17 216 33 30
32 0 176 86 31
-134 43 -60 9 31
93 29 -226 22 32
157 26 93 22 32
-166 -9 301 33 33
-15 17 139 -5 34
178 23 -184 -48 34
-61 29 -69 23 35
-71 21 81 32 36
179 19 -35 -40 37
7 24 -372 -115 37
-137 7 -208 29 38
144 14 30 26 39
62 17 232 97 40
-165 3 109 6 40
37 -26 44 -60 41
140 -7 43 -9 42
-131 19 35 50 43
-32 27 -28 65 44
192 40 32 71 44
-42 24 -135 -40 45
-104 -2 -132 -88 46
144 15 -51 5 47
25 15 127 22 48
-173 -7 135 40 49
121 21 43 0 49
140 32 -142 8 50
-148 20 -186 -4 51
51 31 -59 -4 52
165 32 14 23 53
-88 18 119 80 54
-58 13 159 39 55
148 -22 65 -4 55
-39 14 -1 -7 56
-141 13 34 13 57
144 15 146 57 58
56 4 104 -11 59
-178 -24 -132 -47 60
73 -13 -289 -103 61
119 6 -27 8 62
-154 10 138 60 62
-21 -6 -16 -7 63
159 -1 -268 -72 64
-105 16 -268 -46 65
-63 33 -70 28 66
179 24 263 127 67
37 70 308 130 67
-111 39 53 -64 68
156 19 -114 -31 69
92 17 -109 32 70
-172 -13 -38 7 71
41 -1 235 93 72
115 9 278 21 72
-171 -33 -148 -137 73
-41 -31 -261 -119 74
167 5 48 10 75
-78 27 243 99 75
-115 3 -309 -89 76
203 24 -182 -15 77
38 53 -107 58 78
-146 38 1 59 79
113 -33 -327 -75 79
53 -53 -43 -58 80
-248 1 679 179 81
49 49 760 153 81
162 34 -82 -76 82
-171 -70 -668 -256 83
-104 -77 -365 -151 84
137 -12 -189 -18 84
-51 -7 -274 -110 85
-119 1 -33 -37 86
162 -20 105 87 86
-8 -21 -270 -114 87
-157 55 247 180 88
149 65 623 220 88
131 11 -47 -42 89
-182 10 -83 -27 89
37 37 0 47 90
216 76 435 176 91
-67 69 198 79 91
-119 -56 -640 -200 92
167 -29 -124 -81 93
-96 -17 517 157 93
-159 23 11 27 94
132 -40 -805 -246 94
45 -35 -214 -56 95
-179 7 590 166 96
101 30 460 113 96
111 -19 -777 -217 97
-193 -65 -592 -194 97
-43 -10 367 190 98
177 43 523 113 98
-133 3 -49 -48 99
-44 6 -368 -97 99
183 14 -137 45 100
-17 45 485 184 100
-132 12 120 10 101
128 11 -103 -29 101
125 71 261 152 101
-165 10 -39 1 102
62 -5 -137 -111 102
131 -24 -265 -88 103
-138 -3 -8 -25 103
-37 1 266 121 103
210 47 -292 -23 104
-65 17 -295 -75 104
-106 9 124 11 105
133 -5 301 53 105
36 14 90 92 105
-183 -41 -928 -289 106
116 -31 25 27 106
103 26 780 260 106
-143 70 685 259 106
41 37 -509 -223 107
184 1 -380 -165 107
-121 27 493 235 107
-73 37 480 169 108
255 77 -87 46 108
-69 -26 -531 -111 108
-160 -17 -81 -66 109
155 -18 -38 -3 109
21 -37 -137 -130 109
-151 22 -163 26 109
54 -33 -457 -98 110
173 60 -170 70 110
-204 0 -81 -37 110
8 23 801 326 110
216 57 742 159 111
-89 61 -324 -73 111
-146 -14 -545 -177 111
173 -3 227 87 111
-47 4 613 135 112
-208 -96 -334 -213 112
128 -47 -371 -181 112
72 49 223 194 112
-184 72 367 140 113
-23 -36 -369 -81 113
218 3 -691 -100 113
-130 -57 -95 -5 113
-21 14 36 -70 114
251 10 231 -2 114
-76 73 352 135 114
-168 53 461 205 114
248 71 159 55 115
6 -57 -794 -246 115
-225 -41 -313 -56 115
93 -23 294 82 115
76 -20 -21 -94 115
-183 -22 -60 -60 116
51 42 178 112 116
181 35 207 104 116
-155 41 336 120 116
-47 4 -189 -38 116
148 -59 -415 -170 117
-64 13 -123 -24 117
-145 0 -78 -30 117
189 12 -254 -20 117
6 -17 -249 -48 117
-168 0 47 -73 117
121 27 322 50 117
126 63 415 152 117
-158 43 104 75 117
32 13 -136 -30 117
176 4 -97 -43 117
-152 -2 -43 -12 117
-61 10 -54 -2 117
191 0 -69 -31 117
-42 15 -41 10 117
-155 -7 -169 -40 117
187 20 -8 33 116
65 23 65 30 116
-156 23 -53 -51 116
107 24 -21 -10 116
159 51 345 222 116
-158 54 173 120 115
-10 32 207 107 115
176 -5 -147 -76 115
-135 -17 -87 -75 115
-118 2 34 10 114
144 -11 -20 -19 114
-33 -10 -55 -20 114
-177 -11 -6 -17 114
155 18 6 9 113
79 -11 -215 -78 113
-229 -21 -263 -72 113
80 26 120 41 112
165 27 185 51 112
-132 23 132 19 112
20 21 -239 -77 111
179 3 -134 -44 111
-79 50 349 196 110
-113 31 272 116 110
189 15 48 39 110
-53 -2 -208 -88 109
-148 8 -63 -19 109
157 23 41 34 108
134 23 -52 -19 108
-162 4 -161 -40 107
15 -7 -82 -27 107
155 9 12 -7 106
-124 16 -65 15 106
-58 -3 -91 -34 105
192 -13 -214 -121 105
-78 -13 -46 -48 104
-167 20 257 181 103
191 61 316 179 103
64 49 271 115 102
-169 4 56 -24 101
90 -9 -83 -62 101
95 0 -143 -44 100
-165 8 -28 11 99
11 8 -28 -4 99
185 17 -30 20 98
-117 9 -74 -10 97
-97 -4 -64 -23 97
202 3 -64 -6 96
-9 19 -135 -31 96
-116 21 -81 4 95
173 31 -127 9 94
51 32 67 33 93
-165 9 149 77 93
75 20 262 63 92
129 10 154 45 91
-182 -17 -61 -25 90
-33 -17 -225 -105 89
157 2 -58 -11 89
-73 25 157 78 88
-106 18 114 53 87
143 9 14 22 86
-11 3 -103 -39 85
-127 -5 -96 -44 85
133 10 -83 -19 84
132 11 -152 -33 83
-199 1 -89 5 82
60 13 41 34 81
158 21 55 29 81
-92 34 2 17 80
-27 23 -72 -15 79
203 41 28 32 78
-75 22 103 57 77
-71 60 249 127 76
185 46 178 81 75
28 27 -26 0 74
-187 -28 -205 -90 74
39 -60 -79 -61 73
99 8 107 11 72
-155 -1 119 11 71
0 -5 -47 -27 70
161 -19 -129 -37 70
-169 -35 -96 -57 69
-105 -35 -83 -43 68
129 -29 -138 -65 67
-27 -19 -176 -36 67
-146 0 -202 -31 66
163 22 -49 31 65
54 14 192 35 64
-161 17 289 36 63
72 9 145 31 62
142 21 -138 -29 62
-178 -10 -167 -32 61
-23 -5 8 6 60
157 4 124 50 59
-87 15 141 50 58
-75 14 5 2 58
183 -2 -58 -13 57
-25 6 -53 -8 56
-183 -12 -80 -22 56
204 54 -43 40 55
69 9 -61 -3 54
-171 14 -79 -7 53
79 7 17 9 53
127 6 18 16 52
-129 25 55 18 51
-21 0 -65 1 51
212 55 40 39 50
-54 39 134 64 49
-113 -6 69 -4 48
211 32 31 26 48
4 19 -68 3 47
-149 19 9 24 46
134 12 50 25 46
86 5 5 -5 45
-174 10 -33 -9 44
28 -4 -57 -15 44
137 -11 -23 -3 43
-148 -1 -9 -1 42
-64 -13 -25 -2 42
218 30 -14 16 41
-74 -19 -51 -12 41
-124 9 -5 7 40
154 -1 21 8 39
47 30 15 13 39
-131 44 14 19 38
98 9 1 17 37
190 80 64 67 37
-159 20 23 20 36
33 22 14 14 36
185 23 5 19 35
-121 3 -5 -1 35
-81 12 -1 11 34
163 -10 -15 -11 33
-29 9 -7 14 33
-130 19 -4 3 32
129 -2 -21 -4 32
52 4 -13 16 31
-171 0 -21 -4 31
43 -10 -29 -11 30
131 5 -10 3 30
-145 10 -12 3 29
5 24 11 21 29
177 12 -4 10 28
-89 4 0 15 28
-78 19 16 9 28
199 45 29 25 27
-26 -8 0 -18 27
-107 35 33 25 27
118 9 32 48 26
99 32 -7 17 26
-139 22 -3 9 26
52 15 6 7 25
181 53 23 56 25
-112 22 13 37 25
-23 27 47 72 25
160 -1 -42 -31 24
-99 -22 -37 -19 24
-163 -45 -77 -68 24
142 -6 -6 11 24
-3 -6 -24 -11 24
-160 8 -7 -2 24
87 -11 -23 -18 23
90 -9 -23 -11 23
-136 28 28 28 23
41 12 1 9 23
168 17 -2 2 23
-71 43 35 31 23
-75 -9 -20 -11 22
171 4 0 5 22
-43 5 -13 -17 22
-121 10 4 7 22
163 20 -6 -3 22
52 17 11 27 21
-173 -6 -44 -50 21
70 3 56 52 21
120 16 -41 -7 21
-149 23 -1 25 21
30 43 -15 15 20
189 24 6 20 20
-82 24 18 31 20
-75 17 -4 17 20
172 3 -10 6 20
-30 9 -7 -5 19
-163 6 -6 0 19
131 15 -5 2 19
70 19 4 9 19
-183 7 -26 -46 19
67 16 91 79 19
140 13 -65 -53 18
-144 31 4 1 18
-23 28 36 23 18
183 11 -39 -27 18
-57 48 39 72 18
-89 28 0 54 18
163 8 -33 -5 18
-11 0 -4 -6 18
-174 -13 -21 -9 17
112 4 -12 -4 17
79 2 -2 -2 17
-144 19 9 16 17
63 34 21 25 17
193 44 28 36 17
-112 8 2 2 16
-64 -17 -17 -18 16
179 5 -4 7 16
-85 -13 -38 -18 16
-121 8 -22 -22 16
174 8 23 25 16
21 7 25 39 16
-171 2 -23 -9 16
96 8 -16 3 16
116 17 -16 -7 16
-139 25 19 42 15
15 3 -26 -6 15
171 18 -12 1 15
-113 8 -6 0 15
-66 7 -5 3 15
174 9 -15 -6 15
-29 22 4 6 15
-133 12 3 16 15
131 2 -21 -5 15
61 8 -23 -11 15
-132 42 -11 19 15
79 16 -36 0 15
142 32 -20 10 15
-141 4 -13 5 15
-49 -21 7 -11 15
166 11 -4 4 15
-89 32 -105 -17 15
-80 14 -150 -17 15
173 20 -97 24 15
-26 3 72 30 15
-149 6 181 13 15
135 12 138 10 15
75 15 71 -2 15
-173 3 -29 -22 15
53 4 -43 9 15
167 18 27 20 15
-141 -1 27 -6 15
-39 4 4 18 15
187 19 91 9 15
-74 19 27 43 15
-105 19 -30 17 15
196 30 -155 -21 16
21 14 -81 -17 16
-167 8 64 29 16
115 8 118 57 17
86 16 200 51 17
-168 23 137 30 18
33 8 -20 -6 18
186 16 -284 -58 19
-106 7 -311 -41 19
-52 9 -54 20 20
187 11 81 36 20
-49 19 43 19 21
-122 17 30 3 21
158 18 100 40 22
38 16 161 59 23
-162 0 -23 -7 23
104 7 -209 -57 24
130 13 -301 -58 25
-151 6 -82 -2 26
-1 5 164 55 26
153 5 266 46 27
-127 -3 206 23 28
-103 -16 -64 -30 29
153 -7 -109 -28 29
-51 1 -156 -16 30
-156 -18 -15 5 31
116 -11 36 -2 32
41 16 128 -17 33
-174 2 95 -15 34
72 5 4 -26 35
152 25 -114 11 36
-129 13 -307 -31 37
-40 -1 -297 -75 38
157 -6 -98 -1 39
-75 -3 148 46 39
-81 20 205 70 40
208 37 101 11 41
27 35 86 28 42
-142 25 148 31 43
131 27 98 25 44
103 19 -142 -50 45
-141 17 -216 -33 46
41 13 -80 16 47
159 22 -50 19 48
-128 5 -1 26 49
-42 11 -134 -43 50
171 17 144 84 51
-47 28 107 52 52
-124 7 111 26 53
147 3 110 18 54
29 14 16 -15 55
-157 2 -230 -99 56
84 8 -123 -21 57
120 23 76 37 57
-156 10 163 51 58
24 20 -64 -14 59
184 43 -148 3 60
-117 18 -83 57 61
-58 7 69 -11 62
171 -8 -35 -39 63
-45 -19 -175 -130 64
-204 -27 12 -26 65
127 13 127 43 65
44 -28 -14 -8 66
-161 -3 -144 -24 67
65 -27 -71 -13 68
136 42 330 136 69
-158 37 440 137 69
31 32 -294 -88 70
195 23 -236 22 71
-117 11 111 90 72
-88 4 80 -28 73
189 4 -21 -49 73
-14 6 -201 -42 74
-154 -9 -30 -19 75
102 13 399 179 76
81 9 307 100 77
-157 19 93 16 77
84 15 -247 -55 78
150 0 -381 -97 79
-168 -13 -267 -80 80
-42 -21 158 35 81
192 5 46 8 81
-85 18 -177 -51 82
-102 12 -131 -58 83
161 13 -43 77 84
-26 0 52 40 84
-144 27 -21 28 85
116 11 190 -9 86
104 21 369 21 86
-173 16 493 136 87
30 3 -185 -96 88
148 28 -166 -33 89
-102 43 4 63 89
-18 37 41 121 90
238 77 -49 72 91
-61 -8 -612 -190 91
-114 0 -199 -64 92
167 -2 306 108 93
5 -27 -117 -147 94
-147 16 -65 -125 94
49 -36 79 51 95
103 -10 35 63 95
-189 -15 -160 -5 96
0 29 28 9 97
152 18 441 119 97
-91 45 494 159 98
-39 13 -232 -103 99
224 40 -121 -26 99
-5 55 221 136 100
-159 -4 -172 -55 101
127 -18 -268 -33 101
43 15 54 64 102
-139 7 62 -50 102
84 38 130 77 103
146 -42 -596 -251 104
-180 -33 37 30 105
4 33 392 97 105
181 31 -39 25 106
-118 -23 -511 -200 106
-161 -134 -639 -247 107
120 -23 400 125 108
-27 65 798 292 108
-197 -62 -118 -124 109
82 -45 -421 -73 109
114 46 159 150 110
-191 76 570 223 110
64 34 -12 -11 111
122 -6 -170 -105 112
-126 6 -174 -37 112
-17 23 40 40 113
205 -20 -236 -201 113
-85 -48 -222 -104 114
-155 -2 71 61 114
173 31 63 90 115
18 -8 -123 29 115
-138 26 -261 -101 116
87 7 -44 -23 116
137 78 372 195 117
-177 20 93 69 117
47 -12 -5 -6 117
164 53 -11 81 118
-132 -14 -49 -56 118
-45 -9 27 -3 118
180 24 147 74 118
-50 32 117 51 118
-124 29 31 16 119
144 1 -112 -32 119
26 -59 -169 -93 119
-218 -18 -9 -15 119
87 17 97 69 119
115 56 22 46 119
-154 15 -81 23 119
3 -11 -222 -58 119
184 -1 -126 -81 119
-131 -14 -78 3 119
-76 23 228 63 119
193 19 107 40 119
-49 11 -6 -17 119
-150 15 30 61 119
135 1 -149 -24 119
53 29 77 69 119
-214 -9 -45 -49 119
107 14 -2 -30 118
162 34 -1 72 118
-125 13 -44 24 118
-10 38 141 73 118
224 1 35 -30 118
-104 15 27 20 117
-90 11 -107 -7 117
220 21 -8 36 117
-14 15 -10 6 117
-152 12 -72 -3 116
112 -13 -87 -33 116
84 32 36 21 116
-184 22 -130 -1 115
26 -4 -195 -49 115
207 45 197 84 115
-153 30 280 49 114
-53 26 265 53 114
212 23 13 9 113
-65 11 -148 -26 113
-135 1 -60 8 112
224 18 11 21 112
33 11 -71 -45 112
-181 4 -19 -1 111
93 0 -73 -37 111
67 -1 -123 -39 110
-150 6 -57 -18 110
22 11 -128 16 109
203 44 32 77 109
-115 9 98 47 108
-95 -20 -86 -81 108
177 -17 53 6 107
-25 44 6 17 106
-149 17 84 50 106
161 36 152 53 105
61 12 47 23 105
-173 17 78 43 104
97 17 31 26 104
136 6 -111 -42 103
-184 -3 -81 -14 102
-20 -2 -69 -26 102
173 -4 -37 -15 101
-127 0 -137 -52 101
-149 -26 -256 -95 100
239 -4 -50 -8 99
-25 4 90 36 99
-129 16 174 48 98
155 33 6 27 98
62 18 -99 -22 97
-193 12 29 13 96
95 53 231 94 96
157 40 289 119 95
-123 57 141 76 94
-39 16 -31 -7 94
191 28 -129 -51 93
-109 -9 -106 -39 92
-117 -17 -91 -48 92
159 -22 -107 -38 91
30 13 -61 -4 91
-152 9 -38 7 90
135 28 -45 21 89
115 21 -40 21 89
-160 16 -26 15 88
57 20 24 3 87
181 21 39 15 87
-144 -11 -21 -3 86
-102 -44 -68 -50 85
150 -19 12 -10 84
-83 1 131 57 83
-149 3 108 44 83
102 -3 -8 18 82
19 -1 -106 -25 81
-145 5 -15 -1 80
100 4 30 11 79
141 2 -8 -12 79
-140 12 -78 -15 78
-30 4 -128 -43 77
189 13 -18 1 76
-95 3 -36 -20 76
-105 0 -55 -29 75
179 13 -38 -2 74
-40 -12 143 35 73
-152 1 145 32 73
157 37 -6 7 72
69 33 -63 -10 71
-144 32 18 20 70
83 11 32 63 70
139 27 -7 33 69
-161 15 -39 -6 68
-52 -21 -75 -72 67
168 -12 21 -18 67
-101 8 -56 8 66
-90 15 -33 2 65
164 3 34 18 65
-30 -5 15 -11 64
-162 -11 -42 -16 63
126 5 -97 -12 62
53 -9 -79 -18 62
-190 -9 -2 -6 61
42 5 57 14 60
159 13 20 3 60
-136 -10 -89 -41 59
-52 8 -116 -14 58
198 15 -103 4 58
-50 6 39 39 57
-123 15 116 51 56
163 19 116 39 56
33 7 97 16 55
-157 4 21 -16 54
97 5 4 -15 54
83 15 -43 -17 53
-167 10 -69 -13 52
42 18 -2 9 52
147 -7 -39 -3 51
-81 24 -123 -15 51
-74 15 -99 -3 50
204 28 34 55 49
-39 -1 164 56 49
-91 32 123 48 48
149 2 30 1 48
53 27 -27 3 47
-149 16 -29 -1 47
99 11 5 17 46
124 28 10 18 46
-145 18 -23 9 45
22 32 -22 9 45
174 12 -21 3 44
-149 -11 -39 -21 44
-97 5 -13 -3 43
187 11 5 14 43
5 35 24 33 42
-133 11 3 19 42
142 2 -6 16 41
65 14 -1 10 41
-173 5 -9 5 40
59 -3 -17 2 40
125 11 -5 5 39
-143 14 -6 -2 39
-46 -12 -15 -11 38
149 1 -21 -11 38
-96 -7 -23 -17 37
-124 -8 -17 -11 37
191 13 5 21 36
-10 -7 -7 -4 36
-189 -5 -20 -13 35
113 13 -5 -1 35
72 -9 -15 -12 34
-169 1 -19 0 34
36 1 -19 -4 34
159 15 3 16 33
-120 9 -4 3 33
-74 -9 -21 -7 32
197 14 -7 8 32
-64 11 -5 -5 31
-114 11 -13 -10 31
165 21 21 28 30
37 25 -6 3 30
-155 19 3 16 30
85 -1 12 14 29
123 26 -5 8 29
-162 6 1 16 29
27 13 -8 15 28
174 12 -3 7 28
-107 12 -1 0 28
-67 21 21 28 27
201 31 14 25 27
-27 4 -7 16 27
-135 8 -21 -13 26
152 14 -6 16 26
35 -4 -37 -22 26
-171 4 4 17 26
76 8 -16 -7 26
144 20 0 10 25
-156 -1 -16 -8 25
0 20 3 3 25
176 11 1 3 25
-81 19 5 5 25
-99 -8 -8 -15 24
192 12 30 48 24
8 23 -3 19 24
-157 -18 -24 6 24
158 54 56 97 24
51 -21 -33 -22 23
-143 49 15 29 23
22 -16 -89 -73 23
132 -18 -18 -3 23
-103 40 35 45 23
-35 23 -25 -8 23
193 13 -3 -5 22
-55 15 -7 3 22
-110 16 9 20 22
165 14 -12 -6 22
31 20 -3 3 22
-174 -3 -19 -18 22
88 -7 -31 -15 22
120 25 18 27 21
-163 6 -9 0 21
31 11 -11 1 21
156 1 -22 -6 21
-136 -8 -42 -44 21
-72 -9 17 22 21
174 7 -41 -52 21
-43 9 37 31 20
-142 1 -16 -14 20
131 6 -19 3 20
44 10 -37 -55 20
-175 -13 52 64 20
112 45 3 27 20
131 28 39 93 20
-135 30 -27 19 19
12 22 -5 12 19
187 18 -4 5 19
-113 2 -23 -21 19
-94 11 -21 -25 18
173 6 -5 -2 18
-35 -4 -21 -12 18
-158 5 -11 -11 17
113 -17 -16 -17 17
127 63 39 41 17
-141 38 42 49 17
77 22 17 30 17
155 13 -17 -11 16
-148 -19 -18 -15 16
-43 3 -22 5 16
183 24 14 25 16
-82 8 -26 -2 16
-96 9 -14 -7 16
156 -5 -9 1 15
10 13 13 18 15
-165 -4 -6 -5 15
100 -10 -25 -16 15
89 0 0 1 15
-180 -3 -16 -10 15
17 -5 -21 -15 15
138 -11 -29 -17 15
-139 -2 -20 -10 15
-56 3 -17 -8 15
174 4 -30 -1 15
-51 21 -11 9 15
-129 7 -47 -9 14
175 21 -30 13 14
27 13 -31 3 14
-159 9 -19 21 14
76 -5 -29 -17 15
116 13 -118 -21 15
-150 25 -123 9 15
19 9 38 40 15
176 14 194 56 15
-127 11 214 3 15
-51 16 -81 -49 15
196 20 -131 -24 15
-19 32 -10 27 15
-145 11 248 85 15
131 18 358 104 15
55 22 201 46 15
-163 9 24 -8 16
95 19 -93 -27 16
137 22 -158 -23 16
-147 28 -125 2 17
-1 15 -161 -5 17
185 20 -49 40 18
-72 31 -43 15 18
-68 26 -84 -18 19
181 15 -87 -9 19
-27 3 -23 27 20
-167 1 97 34 20
116 3 69 44 21
76 5 17 1 21
-171 -2 23 -5 22
53 -3 51 -9 23
148 12 64 17 23
-135 5 -81 -25 24
-13 20 -129 -21 25
195 20 -114 -7 25
-78 10 31 44 26
-112 -1 53 26 27
156 -6 39 14 27
-2 -5 55 0 28
-184 -11 46 10 29
101 -11 25 -4 29
57 -11 -55 -1 30
-163 8 8 26 31
32 6 -30 -17 32
167 16 -126 -39 32
-103 6 -282 -89 33
-41 13 -109 -2 34
187 23 94 39 35
-40 24 111 91 36
-125 5 -15 -40 36
160 16 79 9 37
34 33 292 75 38
-166 26 294 79 39
70 20 -19 -5 40
135 17 -249 -61 41
-157 5 -325 -45 41
22 1 -119 -14 42
177 15 151 53 43
-115 25 238 74 44
-77 28 105 76 45
196 21 -106 -11 46
-23 16 -57 -13 47
-147 -5 -56 -43 48
141 -5 -443 -176 49
47 -15 -439 -64 50
-191 -13 89 -3 51
42 -1 555 177 52
129 9 319 79 53
-144 8 -83 -51 54
-36 2 47 37 55
207 20 69 16 56
-88 9 127 45 57
-93 9 113 32 58
186 13 79 -8 59
-4 27 58 22 60
-158 32 -359 -90 61
121 -3 -328 -29 62
90 9 36 59 63
-166 13 129 53 64
49 19 68 21 65
172 14 -248 -120 66
-138 5 -179 -16 67
-66 -9 84 -23 68
189 21 -11 -17 69
-38 33 -317 -80 70
-106 22 95 102 71
182 11 423 79 72
31 23 750 199 73
-152 24 110 16 74
134 34 -335 -75 75
99 7 -209 18 76
-164 6 -264 -36 77
-2 -6 -215 -59 78
181 25 -164 16 79
-139 -24 32 -52 80
-105 -1 56 -49 81
173 19 255 45 81
-42 2 216 51 82
-143 15 -31 39 83
233 44 -470 -124 84
122 71 -51 37 85
-149 17 181 126 86
125 41 238 63 86
124 26 26 -2 87
-161 35 66 33 88
6 -1 -257 -142 89
183 -21 -201 -23 89
-144 -9 -132 22 90
-142 -17 24 17 91
144 -1 350 132 92
-54 -33 -208 -107 92
-190 -39 -151 -97 93
109 0 337 153 94
38 -19 227 39 95
-163 0 -351 -63 95
53 -22 -191 -85 96
160 43 165 80 97
-142 -17 -82 -139 97
-88 -11 98 32 98
209 31 -36 43 99
-55 16 -199 31 100
-134 -4 110 89 100
198 -36 -190 -139 101
46 1 -412 -175 102
-170 28 435 253 102
123 15 265 110 103
107 6 188 -37 104
-208 15 -114 -69 104
49 -17 -517 -144 105
166 23 -17 15 106
-117 -3 -216 -45 106
-110 -13 -244 -49 107
215 29 200 89 108
-44 41 393 162 108
-139 23 337 63 109
225 45 -103 -37 109
73 38 11 45 110
-178 35 158 49 110
93 11 -151 -11 111
92 -41 -265 -59 112
-173 13 133 41 112
-26 36 211 51 112
209 -5 -463 -181 113
-99 -56 -261 -13 113
-61 34 220 112 114
233 62 239 114 114
-13 82 71 56 115
-123 19 44 25 115
136 -47 -145 -105 115
63 28 -105 34 116
-190 4 -204 -47 116
66 -15 11 -25 116
103 -13 162 -4 116
-180 -14 154 2 117
-33 -23 -218 -90 117
166 14 24 22 117
-94 3 -32 9 117
-119 -14 -170 -60 117
188 24 62 67 117
-3 9 -136 -58 117
-159 16 34 63 117
139 21 108 82 117
91 30 75 80 117
-170 41 179 72 117
71 35 101 31 117
169 5 -141 -85 117
-171 -22 -253 -72 117
-53 -13 -111 -19 116
204 15 188 61 116
-74 10 83 -10 116
-120 20 44 31 116
175 15 -118 -4 116
10 12 -13 27 115
-185 18 128 26 115
129 11 18 -12 115
81 13 -48 -19 115
-166 5 -131 -54 115
56 7 -137 -37 114
171 1 -177 -44 114
-113 25 145 79 114
-65 38 240 89 113
227 43 131 55 113
-36 29 -56 -6 113
-143 -22 -320 -157 112
145 -21 -203 -121 112
64 52 241 147 112
-176 44 235 120 111
105 53 243 163 111
146 12 -58 -47 110
-191 -25 -248 -110 110
-19 -7 -67 -4 110
185 14 -18 18 109
-97 13 36 21 109
-115 -10 -115 -41 108
191 13 5 26 108
-35 -10 -33 -14 107
-164 13 55 3 107
147 26 105 47 106
57 11 -56 -23 105
-104 19 -59 0 105
64 12 -63 -6 104
176 27 130 96 104
-131 24 113 69 103
-44 9 67 15 102
195 10 -65 -13 102
-69 7 -11 -27 101
-131 6 106 48 100
191 27 -6 10 100
8 7 -133 -39 99
-163 -3 -44 6 98
127 10 17 1 98
85 -6 -93 -40 97
-194 -17 -185 -56 96
34 -11 -123 -30 96
142 7 39 42 95
-100 16 61 5 94
-37 10 63 0 93
230 25 43 25 92
-37 30 57 86 91
-127 40 159 145 91
186 42 47 61 90
78 65 117 75 89
-133 49 79 10 88
59 24 -8 -13 88
131 29 -42 -15 87
-125 19 -80 -21 86
39 13 -129 -28 85
196 -12 -143 -43 85
-151 -22 -62 -36 84
-143 -33 29 -5 83
141 -17 40 2 82
-55 -26 -127 -52 81
-177 -32 -144 -72 81
121 -8 -52 -28 80
37 -8 49 0 79
-160 3 97 35 78
64 9 112 69 77
115 15 4 18 76
-159 -1 -150 -35 76
-42 -33 -110 -39 75
161 -3 21 -20 74
-112 -7 135 16 73
-105 9 66 13 73
176 13 -78 -14 72
-19 28 -91 -9 71
-131 17 -153 -35 70
146 24 -75 -11 70
111 31 23 18 69
-145 7 104 48 68
78 32 3 41 67
151 21 -87 15 67
-142 11 -13 3 66
-28 21 112 47 65
168 -1 117 17 65
-80 32 50 26 64
-123 2 11 6 63
136 -12 -34 -26 63
9 8 -40 7 62
-159 12 -9 30 61
129 29 22 27 61
126 31 25 32 60
-130 41 -5 27 60
44 21 -49 10 59
187 37 -77 15 59
-66 43 -93 15 58
-32 26 -71 29 58
176 3 44 15 57
-52 -7 79 21 57
-207 -41 -12 -61 56
123 -22 -82 -39 55
14 -29 -123 -48 55
-172 -27 75 7 54
64 -13 114 11 54
79 -17 91 -13 53
-160 -4 3 -25 53
-17 -7 -89 -34 52
163 25 -31 17 52
-55 53 19 44 51
-66 16 -8 13 51
207 37 -7 27 51
-1 6 -43 -7 50
-151 -1 -45 -7 50
108 -13 -36 -5 49
78 16 9 14 49
-181 -10 -31 -8 48
86 32 0 30 48
107 4 -36 -7 47
-104 27 -7 19 47
-25 9 -43 -3 46
182 26 24 47 46
-69 22 75 23 45
-93 14 133 33 45
181 37 85 29 44
22 32 13 15 44
-166 2 -30 -2 43
99 -3 -3 11 43
79 1 -8 1 42
-163 -5 -39 -10 42
41 14 -38 -4 41
177 31 -3 35 41
-114 25 -14 11 40
-29 18 -12 17 40
194 14 -15 5 40
-49 27 -4 15 39
-136 11 -1 3 39
173 18 -1 15 38
31 11 1 5 38
-172 8 1 -5 38
83 1 -16 -7 37
124 27 8 20 37
-165 6 -15 -3 36
18 3 -13 -7 36
192 28 17 21 36
-100 11 4 6 35
-73 8 -1 9 35
197 7 -11 3 35
-29 24 -9 3 34
-148 8 -5 0 34
145 10 -2 9 33
48 -2 -18 -9 33
-158 16 8 16 33
65 8 11 16 33
128 9 -13 7 32
-149 16 -4 4 32
-3 13 -10 -8 32
154 -1 -8 -14 31
-75 27 26 29 31
-88 12 -11 13 31
169 20 -9 22 30
-4 10 -27 2 30
-170 -19 -13 1 30
118 6 2 18 30
57 -12 -50 -33 30
-159 -4 8 18 29
31 -9 -29 -14 29
136 22 11 29 29
-126 12 -31 -16 29
-23 14 -5 -4 28
147 -6 -5 -1 28
-69 7 -13 -7 28
-133 -12 -29 -29 28
141 7 -10 -3 27
12 3 -12 -4 27
-163 1 -29 -24 27
101 6 -10 -4 26
93 16 -7 9 26
-179 -7 -18 -12 25
3 -17 -19 -9 25
159 20 11 23 25
-92 31 13 29 25
-40 19 2 13 24
183 15 -9 -8 24
-37 18 16 28 24
-131 -4 -42 -60 24
145 9 46 19 23
47 27 -42 -26 23
-182 5 -25 20 23
99 23 -22 27 23
129 23 -42 -24 23
-147 13 35 49 22
7 5 -5 21 22
172 21 -2 31 22
-99 9 -19 10 22
-83 0 -8 -1 21
163 3 -4 3 21
-28 12 -5 2 21
-128 24 15 10 21
157 29 18 24 20
71 23 9 18 20
-163 6 -13 -15 20
58 -4 -7 -19 20
143 32 15 19 20
-148 24 15 6 19
-12 0 -18 24 19
188 27 10 35 19
-83 20 -19 5 19
-115 -4 -31 -33 19
163 6 5 18 19
3 5 -23 -19 18
-147 8 -1 8 18
130 3 -11 -8 18
93 14 5 14 18
-167 2 1 6 18
35 16 -19 -41 18
161 19 7 17 18
-105 30 3 35 18
-26 40 14 55 17
205 36 13 31 17
-62 -4 -35 -24 17
-133 1 -11 0 17
153 9 -10 -1 17
1 -13 -17 -17 17
-190 -23 -17 -20 17
100 5 6 15 17
97 0 -23 -16 17
-161 -2 -17 4 16
19 1 -44 -10 16
169 7 -25 -3 16
-139 -5 -19 -3 16
-84 7 1 3 16
193 14 26 22 16
-38 7 -3 13 16
-135 8 8 7 16
147 9 -5 4 16
42 30 -8 -8 16
-149 10 -5 3 16
94 32 -24 5 16
131 15 -61 -2 16
-130 13 -71 2 16
-1 15 -76 16 16
167 8 -73 -2 16
-73 19 16 13 16
-99 6 13 14 16
164 17 126 44 16
-13 14 162 36 16
-156 8 120 0 16
119 8 6 -19 16
62 8 -66 -9 16
-155 16 52 14 17
52 10 141 46 17
144 15 20 4 17
-117 22 -122 -16 17
-46 9 -246 -47 17
189 18 -126 0 18
-73 1 32 51 18
-113 -6 49 6 18
150 1 53 43 19
-5 2 43 -8 19
-175 -1 197 51 19
96 11 127 25 20
85 7 -51 -23 20
-150 6 -269 -65 21
33 8 -95 -15 21
164 15 70 40 22
-106 25 95 28 22
-45 16 -10 1 23
186 20 -33 -7 24
-37 17 17 16 24
-128 9 -123 -26 25
158 13 -180 -1 26
41 22 -123 -36 26
-173 -1 9 10 27
94 11 77 36 28
129 21 55 40 28
-142 19 65 31 29
10 13 69 56 30
181 12 -11 -14 30
-105 3 -129 35 31
-85 4 22 -22 32
167 25 259 128 33
-28 31 70 19 33
-143 18 57 35 34
154 17 67 2 35
63 16 242 37 36
-168 11 86 -40 37
76 13 -161 -51 38
151 30 -350 -44 39
-106 26 -186 22 39
6 22 -15 64 40
217 37 94 64 41
-69 27 42 25 42
-113 8 86 -11 43
159 7 112 49 44
13 11 61 -27 45
-172 0 15 3 46
127 3 66 8 47
91 17 -217 -63 48
-175 0 -274 -29 49
7 5 29 69 50
152 7 265 77 51
-146 -5 232 35 52
-41 -1 -406 -157 53
171 -18 -312 -68 54
-79 1 -131 -57 54
-170 -11 232 86 55
165 -1 160 58 56
13 -10 137 30 57
-166 -4 20 6 58
115 24 -70 -1 59
75 16 60 43 60
-146 13 55 -11 61
64 2 -432 -125 62
141 -5 -311 -75 63
-133 -10 200 63 64
-58 17 814 297 65
144 19 216 -15 66
-16 19 -301 -87 67
-89 2 -325 -99 68
124 -13 55 30 69
55 16 -170 -45 70
-164 -2 -408 -123 71
58 12 -58 -9 72
111 34 215 144 73
-137 27 227 -21 74
-23 -21 -85 -66 75
173 -18 -14 -66 76
-110 -20 -21 4 77
-70 49 83 60 78
208 74 -68 55 79
34 65 -87 77 80
-125 9 -15 -12 81
113 -7 137 -20 82
67 17 367 98 83
-139 32 131 13 83
82 29 -27 13 84
172 47 -218 -43 85
-78 66 -178 23 86
5 7 -721 -116 87
165 -14 -39 51 88
-88 -2 688 242 89
-173 -31 341 -44 89
138 6 57 -67 90
-5 -40 -91 -37 91
-193 -67 -505 -193 92
74 -16 -66 39 93
123 76 126 115 94
-175 2 22 14 94
26 -9 271 43 95
153 -42 -191 -141 96
-181 -57 -431 -230 97
-107 -61 70 57 97
127 -33 -157 -94 98
-75 -63 -185 48 99
-130 -32 372 174 100
221 86 264 119 100
33 70 136 -2 101
-202 86 75 25 102
96 80 169 19 103
152 88 254 63 103
-138 67 -12 -9 104
36 -26 -632 -201 105
155 -48 -271 -86 106
-152 -11 158 68 107
-89 -23 -24 -15 107
203 -59 -302 -160 108
-14 -1 -95 -12 109
-125 65 197 110 109
196 68 50 107 110
31 -29 -186 -40 110
-213 -54 -214 -87 111
111 71 219 91 111
161 50 66 113 112
-141 -8 -91 -24 112
-31 -47 -139 -64 112
178 13 247 131 113
-77 88 423 90 113
-73 68 208 56 113
209 24 -7 36 114
-48 -25 -191 -88 114
-206 -35 -57 -27 114
105 -27 -26 -19 114
40 -48 -496 -248 115
-193 -32 -124 7 115
47 -4 10 -16 115
134 -42 -43 -63 115
-125 32 111 -8 116
-24 7 143 84 116
182 61 223 67 116
-41 50 133 59 116
-104 13 -110 -17 116
141 -10 -171 -62 116
14 20 -35 -1 116
-187 -29 -152 -69 116
119 24 -97 -17 116
110 12 -37 -16 117
-155 19 14 24 117
41 22 -111 -35 117
161 7 14 1 116
-119 49 131 89 116
-36 54 179 74 116
208 43 -9 36 116
-69 -1 -109 -55 116
-149 -16 2 -21 116
153 17 197 73 116
40 27 62 15 116
-163 11 -83 -39 115
98 14 -65 -21 115
99 5 -31 -3 115
-183 8 -122 -50 115
47 14 87 53 114
204 33 45 17 114
-99 9 88 41 114
-90 25 32 32 114
199 31 7 37 113
-15 37 -48 44 113
-138 -5 -84 -50 113
157 -8 -141 -69 112
68 18 38 -3 112
-197 1 -13 -37 111
74 4 24 37 111
145 21 78 51 111
-169 10 32 20 110
-29 -11 -219 -57 110
229 33 29 85 109
-100 38 179 51 109
-87 55 310 135 108
200 31 120 32 108
12 6 -137 -54 107
-197 16 -130 -42 107
138 14 -43 -29 106
89 12 -55 1 106
-174 4 -59 -23 105
33 0 -79 -37 105
165 -6 -66 -18 104
-148 -13 20 18 104
-60 -7 19 25 103
169 -11 -50 -35 102
-96 -45 -242 -123 102
-114 15 47 45 101
189 41 133 79 101
45 46 154 107 100
-183 16 174 63 99
89 -17 -13 -44 99
103 7 4 -48 98
-213 -13 -164 -69 97
26 2 -66 13 97
171 13 47 50 96
-88 36 93 57 95
-41 6 -100 -35 95
212 6 -142 -38 94
-33 28 -148 -4 93
-127 35 4 32 93
194 42 44 27 92
96 29 39 -30 91
-137 43 150 98 91
103 48 97 107 90
172 63 170 154 89
-145 35 95 53 88
44 37 -5 -5 88
187 30 44 10 87
-124 -5 -33 -28 86
-148 -50 -93 -75 85
80 -62 -110 -68 85
-53 -38 -124 -65 84
-190 -27 -82 -40 83
121 -26 -103 -49 83
48 -34 -93 -65 82
-215 -24 -100 -47 81
23 -15 -19 6 81
145 -7 -62 -17 80
-152 -10 -50 -33 79
-35 -15 35 12 78
150 -10 -43 -48 78
-50 35 123 59 77
-109 24 148 85 76
165 20 106 41 75
10 19 79 30 75
-172 -2 -58 -43 74
118 30 -60 -15 73
118 25 -24 12 73
-137 42 -23 18 72
41 16 -45 -2 71
175 19 -85 -7 71
-114 16 -158 -14 70
-50 21 -99 0 69
177 6 38 7 69
-69 -29 161 25 68
-127 12 142 41 67
145 8 -62 0 67
59 15 -148 -9 66
-150 10 -63 14 65
95 26 83 27 65
138 29 173 33 64
-133 25 133 23 63
31 28 61 37 62
160 10 -18 17 62
-108 13 -80 -5 61
-113 -14 -95 -25 61
219 24 -24 19 60
-31 0 -49 -17 59
-100 10 -121 -15 59
143 0 -167 -40 58
-8 -49 -146 -62 57
-213 -35 10 -47 57
19 -38 73 -35 56
107 -21 80 -18 55
-143 4 37 7 55
-26 -6 47 2 54
160 4 49 -3 53
-68 12 20 -1 53
-93 15 -7 15 52
183 44 -12 37 51
55 49 -9 38 51
-122 30 -10 16 50
153 64 15 55 50
117 42 -8 40 49
-175 9 -58 -8 48
55 5 -76 -6 48
150 -4 -79 -11 47
-116 24 -6 28 46
-56 -1 59 44 46
219 43 104 47 45
-49 25 3 16 44
-96 40 -3 21 44
154 2 41 16 43
31 8 109 21 42
-160 10 68 9 42
101 13 -1 7 41
104 3 -36 -5 41
-148 16 -31 -3 40
-15 -7 -54 -17 39
184 17 -14 19 39
-134 -32 -48 -18 38
-94 -19 -44 -7 38
154 -15 -44 -7 37
-39 -13 -16 -2 37
-149 -4 -18 -9 36
140 7 -9 14 36
93 43 18 39 35
-171 9 -1 9 35
81 21 13 15 34
116 -1 -12 -8 34
-136 16 5 5 33
1 30 10 8 33
184 24 16 22 32
-70 31 9 19 32
-107 -3 -20 -25 31
162 1 9 6 31
-7 12 -8 -24 31
-163 -5 6 20 30
137 40 10 26 30
90 27 23 59 29
-141 26 -6 18 29
27 -7 -27 -1 29
127 -8 -29 2 28
-136 0 -23 -13 28
-34 6 -17 -18 28
179 20 47 43 27
-76 -16 -25 -15 27
-105 7 -9 -5 27
163 13 -9 -3 26
25 29 13 15 26
-115 31 21 25 26
103 0 -13 -5 26
77 11 -9 2 25
-152 14 11 15 25
14 -7 -17 -23 25
143 6 -1 -5 25
-121 6 -1 4 24
-61 -1 -24 -15 24
162 -8 -7 3 24
-8 27 15 21 24
-160 -26 -41 -30 23
155 26 -1 17 23
41 23 3 8 23
-131 33 10 18 23
97 21 3 22 22
129 13 -8 1 22
-160 -23 -25 -9 22
-10 -17 -26 -26 22
197 56 42 37 22
-109 -1 -49 -38 22
-56 21 32 10 22
173 24 -2 9 22
-14 26 -75 -31 22
-126 26 5 33 22
141 8 -31 -4 21
67 15 -29 -4 21
-155 21 11 53 21
70 28 -20 37 21
154 21 -1 1 21
-133 16 14 5 20
-55 -17 -17 -11 20
218 51 10 15 20
-46 31 18 12 19
-92 22 18 14 19
179 24 13 19 19
19 27 12 11 18
-162 13 -7 -8 18
85 -24 -37 -31 18
87 8 -1 -2 17
-157 5 2 8 17
56 19 -6 -1 17
144 9 -11 -36 17
-112 24 19 28 16
-48 -1 -14 9 16
160 9 16 69 16
-36 39 -6 31 16
-121 3 -9 7 16
168 16 7 31 15
42 22 -20 6 15
-167 12 1 7 15
117 29 10 13 15
153 49 23 25 15
-149 24 13 17 15
32 34 9 9 14
185 25 18 21 14
-83 36 20 21 14
-62 15 11 12 14
177 14 -16 -4 14
-58 -9 -49 -34 14
-172 -18 -47 -21 13
127 -9 -75 -29 13
40 5 -50 -4 13
-177 -7 -34 -2 13
44 -27 -66 -32 13
125 9 -44 -5 13
-164 8 -29 11 13
9 17 -28 -3 13
187 32 24 22 13
-96 6 12 6 13
-81 12 10 -1 13
178 11 101 34 13
-10 7 146 32 13
-149 7 74 5 13
128 10 23 -3 13
88 21 -72 -15 13
-175 0 -50 -9 14
61 5 36 -3 14
143 13 59 23 14
-150 9 53 14 14
-33 11 64 33 14
175 21 51 28 15
-69 15 27 9 15
-104 15 2 6 15
167 8 -62 -10 16
25 15 -111 -7 16
-150 7 -186 -32 17
128 17 -266 -33 17
107 11 -200 -3 17
-155 15 16 21 18
22 19 182 67 19
156 15 140 6 19
-100 16 67 58 20
-27 35 -86 -23 20
187 27 -33 50 21
-45 23 133 36 21
-117 31 287 99 22
154 30 176 31 22
49 13 28 -7 23
-161 -11 -69 -30 24
61 -13 -42 -24 24
86 -1 -45 -15 25
-157 5 -221 -65 26
-3 -22 -384 -82 26
160 -14 -322 -35 27
-128 -20 -67 -24 28
-109 -23 91 9 28
143 -16 252 51 29
-43 -9 247 33 30
-155 -15 121 6 31
142 15 37 -26 31
59 15 -57 -23 32
-153 23 -59 40 33
78 28 -80 12 34
150 37 -231 14 34
-147 19 -63 17 35
-2 9 319 42 36
182 25 428 88 37
-74 28 168 9 38
-82 13 -223 -53 39
176 12 -314 -65 39
-7 8 -155 -5 40
-162 6 -125 -6 41
123 15 -33 64 42
76 19 -21 35 43
-161 12 126 47 44
46 14 131 37 45
158 17 -132 -50 46
-129 3 -81 -27 47
-42 7 -135 -17 48
175 7 180 45 49
-59 9 -74 -28 50
-133 -3 -45 -47 51
169 37 267 98 52
43 47 329 153 53
-150 29 30 60 54
100 11 -97 -34 55
104 -15 -25 -36 56
-155 -8 -53 -53 57
24 0 -145 -69 58
171 21 -157 -13 59
-100 32 -85 41 60
-63 -15 -332 -145 61
185 9 -145 -57 62
-23 41 141 107 63
-134 41 428 226 64
128 22 229 107 65
64 21 131 -13 65
-170 -5 33 -35 66
100 23 -332 -78 67
115 -8 -312 -88 68
-152 -13 -32 -55 69
-35 -10 513 144 70
181 29 163 34 71
-100 -2 -251 -125 72
-86 -11 -285 -146 73
154 5 -19 5 74
64 84 -7 117 75
-133 50 -15 78 76
138 6 -21 -26 77
69 -47 195 5 78
-165 15 174 38 78
70 29 -207 -41 79
179 9 -385 -126 80
-132 11 2 55 81
-52 27 208 55 82
171 24 251 118 82
-59 -3 159 37 83
-107 -2 -135 -72 84
138 15 -198 -69 85
-21 -10 72 -13 85
-146 -3 168 107 86
108 34 66 27 87
113 26 -241 -12 88
-191 -41 -487 -177 88
11 -27 120 25 89
147 -1 179 110 90
-143 -2 -77 -92 90
-45 12 132 21 91
193 48 167 70 92
-52 7 -224 -58 92
-149 2 -177 -65 93
150 -39 -71 -31 94
28 20 203 85 94
-158 35 124 61 95
110 17 -191 -139 96
122 25 -17 -29 96
-149 21 249 78 97
5 10 50 122 98
177 13 -125 41 98
-130 -4 197 73 99
-89 17 4 -78 99
160 -45 -423 -219 100
-40 -28 -409 -109 101
-159 -18 161 71 101
100 3 30 52 102
70 65 185 35 102
-183 -43 -591 -199 103
119 3 29 42 103
173 104 633 239 104
-131 86 536 216 105
25 80 175 90 105
180 -4 -29 15 106
-114 -17 -21 -33 106
-112 3 -32 -79 107
177 -38 -419 -187 107
-19 -48 -317 -49 108
-179 7 18 3 109
125 -6 -390 -110 109
93 16 -93 -26 110
-171 23 443 247 110
56 -18 -366 -85 111
173 13 40 55 111
-118 56 216 98 112
9 79 116 40 112
195 55 141 40 113
-39 9 130 35 113
-110 4 176 124 114
186 55 295 132 114
-24 1 -175 -59 115
-97 -1 -185 -141 115
67 -11 31 45 115
103 30 166 113 116
-159 0 -104 -41 116
8 7 -98 -97 117
132 13 -63 1 117
-133 -33 -264 -71 117
-65 -20 -34 56 118
170 -8 -131 -6 118
-80 -12 112 -3 118
-215 -84 -64 -193 118
143 19 309 85 119
34 35 52 64 119
-155 -26 -437 -172 119
92 -30 -86 -31 119
118 43 174 119 119
-193 8 131 43 120
29 17 -28 34 120
169 -14 -341 -138 120
-98 30 -37 3 120
-94 -17 71 -36 120
193 40 319 100 120
-18 15 55 43 120
-172 20 -57 37 120
143 22 -29 -6 120
72 13 -75 -48 120
-179 9 -55 -3 119
58 0 -111 -41 119
143 8 -94 -40 119
-139 18 -63 36 119
-17 13 -133 -14 119
193 15 66 15 119
-81 0 39 21 118
-115 29 189 72 118
196 35 83 41 118
-15 21 68 71 118
-219 -7 -31 -27 118
161 19 43 50 117
111 31 64 -8 117
-151 20 -39 -12 117
57 8 -90 -4 116
170 33 3 34 116
-128 15 28 8 116
-37 15 20 -10 115
205 3 -155 -48 115
-51 15 -44 -11 115
-118 17 56 24 114
176 11 23 31 114
40 35 55 52 114
-193 20 -42 -5 113
117 43 102 59 113
114 11 -47 -27 112
-153 29 81 39 112
15 27 54 42 111
182 29 113 69 111
-131 19 6 -9 110
-78 0 -12 -14 110
175 -4 -105 -28 109
-63 -13 -114 -53 109
-191 -18 -98 -65 108
159 17 59 19 108
56 3 10 -13 107
-156 23 -58 12 107
104 6 -42 16 106
131 21 -49 21 105
-140 34 66 34 105
-8 14 37 26 104
191 10 -145 -62 104
-103 -14 -46 -54 103
-112 5 151 19 102
192 17 297 96 102
45 68 243 143 101
-87 64 -69 48 101
166 43 -124 8 100
78 20 -39 8 99
-179 -12 -29 -2 99
40 -32 -22 -36 98
126 -45 -157 -110 97
-170 -38 -138 -60 97
-86 -19 -68 13 96
167 13 -48 25 96
-66 16 34 35 95
-118 7 -35 -37 94
190 23 -11 23 93
31 24 -17 5 93
-151 21 31 8 92
104 5 167 32 91
89 17 175 49 91
-182 -1 -87 -77 90
26 -1 -88 -30 89
185 33 -4 48 88
-101 31 -67 -5 88
-10 59 44 67 87
239 36 42 43 86
-28 26 111 76 85
-165 -15 -56 -7 85
130 -33 -133 -69 84
1 -26 -75 -38 83
-213 -28 -20 -38 83
91 -15 -268 -99 82
104 -9 -120 -11 81
-158 27 220 76 81
13 29 303 93 80
210 43 193 59 79
-109 -8 -99 -72 78
-79 3 -100 -27 78
145 0 25 15 77
11 14 22 16 76
-163 1 -41 -3 75
148 1 -54 -7 75
34 -10 -89 -48 74
-213 -24 -184 -74 73
52 -29 -204 -76 73
146 0 -89 -33 72
-128 36 179 84 71
-14 38 209 86 70
186 36 104 56 70
-33 63 -125 -10 69
-105 16 -149 -13 68
171 8 62 13 67
-12 6 174 25 67
-165 13 163 36 66
91 3 10 31 65
115 14 -108 -6 65
-151 10 -104 -14 64
64 27 -28 -10 63
179 23 51 36 63
-161 -16 56 -7 62
-65 -11 -18 -27 61
131 -32 -88 -56 61
-56 14 -98 -7 60
-116 18 -62 -1 59
158 25 -10 16 59
53 22 1 17 58
-166 -6 -4 -3 58
85 -7 -27 -16 57
102 9 80 40 56
-149 17 34 13 56
17 16 27 8 55
174 16 67 31 54
-128 -7 53 20 54
-88 -1 14 9 53
158 -2 -69 -24 53
-36 5 -81 -26 52
-129 7 -32 -5 52
144 12 -23 1 51
51 13 -30 1 50
-141 14 -27 1 50
69 7 -113 -23 49
141 16 -62 16 49
-96 32 68 57 48
-12 23 139 34 48
187 21 101 32 47
-74 16 -23 -2 47
-79 14 -80 1 46
191 37 -51 33 46
32 53 109 68 45
-177 -7 75 -13 45
149 33 78 21 44
60 5 -33 -21 44
-173 1 -73 -13 43
45 -13 -49 -14 43
135 5 -5 8 42
-118 19 -2 16 42
1 46 3 32 41
167 4 -4 7 41
-78 5 -36 2 40
-142 -20 -46 -13 40
182 23 -6 15 39
26 32 1 12 39
-148 3 -1 3 38
97 -6 -9 -5 38
87 -23 -15 -19 38
-189 -19 -18 -16 37
10 -10 -13 -12 37
154 2 -11 -5 36
-154 -20 -35 -30 36
-75 -9 -17 -13 35
181 23 9 13 35
-42 13 9 16 34
-119 17 2 9 34
165 22 7 14 33
40 15 -3 4 33
-148 17 6 22 32
85 7 -7 5 32
127 35 2 17 32
-145 15 -1 2 31
9 19 -2 8 31
170 17 3 11 30
-86 20 1 16 30
-63 25 2 11 29
170 13 0 10 29
-27 10 -7 16 29
-130 24 12 32 28
151 31 17 31 28
84 30 14 30 27
-158 8 -26 -16 27
72 12 31 37 27
120 10 -17 23 26
-159 -8 -25 -14 26
-44 -29 -82 -64 26
157 -9 -19 -38 26
-77 26 10 24 25
-97 1 1 22 25
182 7 -27 -16 25
1 5 1 -6 25
-152 0 9 20 24
113 3 -17 23 24
85 3 -30 5 24
-164 17 -17 -19 23
34 9 -3 -13 23
171 39 22 27 23
-113 19 -11 -13 22
-70 -6 -14 -8 22
191 14 1 -1 22
-64 -5 -15 -13 21
-117 7 -1 15 21
147 4 -27 -32 21
15 -5 14 9 20
-163 1 -14 -14 20
83 8 -6 5 20
86 -11 -43 -41 20
-176 -28 -53 -80 19
-6 -3 74 52 19
199 45 -11 33 19
-94 29 16 67 19
-52 22 -10 12 19
192 25 15 24 18
-35 27 11 51 18
-123 16 -11 32 18
145 0 -38 5 18
52 8 -20 -2 17
-181 -8 -6 -1 17
96 13 -12 11 17
139 36 30 45 17
-123 33 34 31 16
6 35 11 19 16
178 11 -2 -6 16
-104 0 -9 -14 16
-81 17 5 13 15
159 -3 -17 -11 15
-15 0 -39 -57 15
-185 -33 2 -33 15
119 8 -19 -27 15
78 7 -21 14 15
-174 -1 -43 7 14
64 16 13 25 14
144 -7 -38 -25 14
-161 -13 -51 -8 14
-61 -6 -30 15 14
164 -13 -39 -8 13
-72 0 -15 -10 13
-121 3 -7 3 13
168 14 0 10 13
12 4 -2 -6 13
-136 36 5 -2 12
121 13 9 11 12
108 21 6 7 12
-133 29 21 19 12
24 1 0 10 12
161 11 6 8 11
-117 13 -2 13 11
-69 -8 -19 3 11
174 5 -9 6 11
-40 21 0 10 11
-153 -13 -23 -9 11
143 14 -26 -8 11
55 28 16 27 11
-167 12 0 4 11
105 18 15 23 11
117 1 -29 -5 11
-171 7 -24 -19 11
5 15 -37 2 11
191 21 -10 23 11
-104 15 -23 -1 11
-78 19 18 18 11
176 11 -31 -1 11
-19 23 -52 -3 11
-157 -5 -91 -26 11
150 8 -54 11 11
57 3 23 11 11
-158 11 132 29 12
57 -8 166 13 12
130 -1 233 28 12
-148 7 168 14 12
-23 3 79 -10 13
175 16 -27 -6 13
-92 12 -93 -10 13
-95 16 -119 -12 14
169 10 -188 -19 14
3 10 -250 -18 15
-143 18 -93 20 15
118 18 12 55 16
101 17 34 25 16
-141 20 -105 -8 16
58 15 -151 -38 17
154 16 112 31 17
-126 19 371 127 18
-15 41 292 73 18
220 52 -9 24 19
-21 41 -172 -15 19
-101 23 -70 29 20
147 0 37 42 20
2 -15 -147 -60 21
-191 -35 -167 -62 22
65 -24 113 6 22
107 16 319 52 23
-172 2 123 -20 23
8 5 -211 -68 24
134 -4 -77 21 25
-143 -18 -33 -6 26
-98 -18 42 -18 26
165 -6 6 -19 27
-53 -4 161 12 28
-145 11 134 28 29
151 13 -245 -58 30
51 -1 -456 -97 30
-175 -21 -186 -59 31
75 -8 82 3 32
