1908,2042,2035,2036,0000
2124,2049,2017,1997,0000
2139,2062,2065,2079,0000
1921,2064,2056,2088,0000
2063,2051,2035,2079,0000
2172,2049,2003,2025,0000
1958,2060,2057,2051,0000
1987,2056,2038,2051,0000
2197,2060,2043,2074,0000
2033,2061,2037,2036,0000
1926,2045,2047,2042,0000
2170,2061,2055,2061,0000
2109,2072,2072,2095,0000
1892,2043,2013,2028,0000
2134,2086,2075,2089,0000
2149,2041,2029,2033,0000
1925,2065,2099,2067,0000
2028,2046,1999,1975,0000
2209,2064,2025,2034,0000
1967,2059,2029,2058,0000
1965,2050,2027,2003,0000
2187,2046,2078,2098,0000
2043,2066,2040,2087,0000
1910,2055,2031,2063,0000
2168,2061,2026,2047,0000
2115,2057,2143,2123,0000
1900,2053,2017,2006,0000
2087,2058,2053,2088,0000
2182,2061,2020,2057,0000
1936,2051,2057,2005,0000
2015,2051,2053,2054,0000
2190,2045,2008,1993,0000
1993,2059,2044,2082,0000
1947,2050,2006,2043,0000
2202,2063,2067,2074,0000
2067,2070,2068,2089,0000
1915,2072,2023,2033,0000
2153,2062,2061,2046,0000
2137,2075,2081,2104,0000
1905,2054,2035,2007,0000
2086,2060,2077,2107,0000
2185,2052,2049,2063,0000
1943,2048,2025,2048,0000
2013,2061,2021,1971,0000
2219,2064,2020,2098,0000
1994,2059,2054,2085,0000
1940,2053,2066,2077,0000
2183,2062,2037,2048,0000
2079,2063,2050,2044,0000
1906,2054,2017,2066,0000
2125,2043,2037,2033,0000
2158,2057,2061,2049,0000
1915,2061,2043,2032,0000
2063,2058,2058,2075,0000
2182,2046,2029,2033,0000
1951,2055,2036,2019,0000
1996,2076,2025,2049,0000
2194,2058,2022,2010,0000
2020,2054,2008,1995,0000
1934,2056,2033,2078,0000
2166,2049,2061,2115,0000
2098,2065,2062,2112,0000
1919,2059,2058,2018,0000
2113,2058,2028,2036,0000
2153,2051,2047,2075,0000
1922,2059,2040,2079,0000
2054,2067,2027,2014,0000
2196,2065,2083,2068,0000
1967,2064,2016,2029,0000
1971,2059,2067,2082,0000
2162,2031,2031,2043,0000
2042,2056,2051,2040,0000
1923,2054,2032,2024,0000
2152,2055,2025,2037,0000
2113,2055,2037,2083,0000
1911,2059,2030,2067,0000
2067,2036,2039,2044,0000
2191,2065,2033,2020,0000
1931,2062,2026,2005,0000
2011,2053,2060,2079,0000
2188,2035,1982,2007,0000
1981,2053,2044,2075,0000
1947,2055,2024,2016,0000
2205,2061,2050,2082,0000
2049,2053,2051,2054,0000
1901,2046,2037,2063,0000
2143,2056,2023,2023,0000
2129,2057,2054,2035,0000
1885,2033,2038,2056,0000
2067,2047,2013,2028,0000
2180,2054,2043,2049,0000
1933,2051,2045,2057,0000
1984,2031,2020,2001,0000
2212,2071,2111,2090,0000
1995,2052,2026,2034,0000
1935,2056,2042,2051,0000
2179,2043,1999,1991,0000
2072,2059,2036,2050,0000
1897,2053,2048,2080,0000
2137,2061,2046,2055,0000
2135,2041,2044,2045,0000
1905,2049,2015,2019,0000
2063,2058,2034,2067,0000
2192,2054,2047,2046,0000
1946,2043,2032,2016,0000
1996,2047,2061,2053,0000
2179,2035,2040,2057,0000
2042,2078,2059,2095,0000
1925,2059,2051,2073,0000
2178,2062,2033,2029,0000
2107,2068,2078,2063,0000
1913,2071,2039,2056,0000
2118,2072,2052,2072,0000
2173,2069,2051,2057,0000
1906,2032,2015,2001,0000
1999,2015,2020,2049,0000
2164,2021,1981,1992,0000
1928,2030,2022,2020,0000
1977,2062,2035,2047,0000
2201,2061,2063,2052,0000
2067,2088,2089,2128,0000
1955,2088,2099,2144,0000
2191,2088,2087,2104,0000
2147,2099,2064,2072,0000
1939,2081,2105,2082,0000
2125,2096,2089,2111,0000
2156,2065,2031,2079,0000
1953,2065,2039,2066,0000
2008,2049,2034,2026,0000
2197,2063,2050,2041,0000
1977,2053,2053,2073,0000
1959,2056,2047,2086,0000
2171,2035,2014,2033,0000
2057,2061,2069,2073,0000
1920,2043,2044,1994,0000
2122,2038,2046,1996,0000
2141,2055,2035,2100,0000
1913,2064,2048,2064,0000
2076,2051,2039,2072,0000
2185,2047,2027,2029,0000
1934,2047,2049,2049,0000
1994,2049,2023,2042,0000
2195,2045,2010,2033,0000
1988,2043,2023,2018,0000
1947,2057,2022,2027,0000
2176,2052,2027,2015,0000
2089,2066,2066,2067,0000
1921,2070,2041,2034,0000
2169,2096,2099,2146,0000
2200,2097,2056,2063,0000
1945,2088,2090,2107,0000
2071,2069,2040,2037,0000
2210,2085,2091,2084,0000
1966,2069,2073,2040,0000
2002,2081,2043,2081,0000
2226,2082,2068,2107,0000
2038,2080,2049,2095,0000
1955,2082,2061,2077,0000
2189,2071,2069,2062,0000
2091,2055,2041,2051,0000
1889,2039,2029,2040,0000
2081,2040,2013,2026,0000
2147,2042,2022,2034,0000
1905,2038,1990,1999,0000
2040,2050,2044,2047,0000
2190,2045,2025,2032,0000
1987,2079,2110,2149,0000
1974,2062,2039,2039,0000
2210,2077,2022,2036,0000
2054,2069,2023,2040,0000
1928,2071,2045,2054,0000
2198,2096,2139,2150,0000
2150,2088,2069,2112,0000
1956,2109,2109,2116,0000
2154,2120,2100,2120,0000
2253,2140,2118,2105,0000
1983,2095,2099,2072,0000
2028,2065,2046,2038,0000
2180,2032,2095,2126,0000
1935,2016,1964,1991,0000
1889,1995,1976,2005,0000
2140,2003,1979,1975,0000
1995,1991,1983,1956,0000
1855,2001,1974,1989,0000
2092,2005,1990,2011,0000
2082,2011,1943,2003,0000
1867,2013,2022,2038,0000
2044,2021,2002,2018,0000
2161,2036,2038,2031,0000
1919,2037,2051,2057,0000
1983,2021,1994,1985,0000
2210,2065,2089,2093,0000
2035,2088,2061,2096,0000
1949,2068,2031,2060,0000
2209,2075,2051,2080,0000
2086,2065,2045,2041,0000
1905,2070,2061,2047,0000
2159,2072,2069,2073,0000
2165,2070,2057,2074,0000
1908,2061,2052,2074,0000
2093,2091,2069,2090,0000
2223,2082,2065,2078,0000
1927,2038,2027,2023,0000
1913,1989,1980,1989,0000
2117,1965,1965,1955,0000
1950,2001,2010,2009,0000
1854,1998,1981,1967,0000
2146,2034,2044,2072,0000
2077,2034,2010,2024,0000
1859,2034,2017,2042,0000
2108,2052,2042,2034,0000
2140,2045,2047,2036,0000
1912,2057,2050,2041,0000
2018,2034,2036,2036,0000
2211,2065,2060,2051,0000
1947,2032,2021,2017,0000
1978,2059,2051,2069,0000
2208,2063,2043,2050,0000
2051,2068,2099,2096,0000
1928,2064,2045,2018,0000
2177,2059,1987,1998,0000
2145,2087,2057,2143,0000
1898,2061,2023,2087,0000
2097,2047,1999,2059,0000
2175,2037,2021,2038,0000
1878,2016,2008,2022,0000
1991,2023,2010,2029,0000
2200,2044,2031,2036,0000
1983,2061,2050,2053,0000
1974,2082,2087,2078,0000
2235,2093,2083,2080,0000
2109,2107,2088,2089,0000
1973,2112,2095,2106,0000
2227,2112,2101,2106,0000
2195,2122,2112,2109,0000
1957,2105,2093,2101,0000
2113,2077,2067,2068,0000
2174,2057,2079,2078,0000
1930,2057,1968,1977,0000
2006,2070,2045,2073,0001
2216,2081,2031,2066,0001
2009,2067,2054,2059,0001
1949,2083,2074,2085,0001
2223,2098,2070,2082,0001
2123,2087,2052,2068,0001
1921,2065,2064,2066,0001
2188,2100,2071,2087,0001
2201,2105,2091,2112,0001
1953,2103,2078,2107,0001
2102,2088,2060,2085,0001
2201,2068,2063,2072,0001
1928,2053,2032,2044,0001
2007,2066,2043,2048,0001
2182,2045,2023,2031,0001
1981,2035,2020,2025,0002
1933,2063,2067,2068,0002
2173,2051,2019,2063,0002
2073,2052,2000,2046,0003
1926,2065,1995,2042,0004
2063,2020,2002,2024,0005
2170,2068,2066,2066,0006
1916,2049,2080,2058,0007
2061,2058,2037,2046,0008
2224,2061,2016,2038,0010
1950,2052,1999,2059,0012
1976,2071,2031,2068,0013
2217,2067,2072,2071,0015
2036,2056,2081,2048,0017
1873,2012,2044,2000,0019
2136,2027,2001,2015,0022
2095,2052,1934,2015,0024
1875,2041,1888,2017,0027
2096,2041,1972,2048,0030
2168,2051,2078,2075,0033
1923,2073,2129,2082,0036
2033,2072,2078,2064,0040
2211,2057,2034,2044,0044
1987,2070,2078,2071,0048
1961,2082,2117,2060,0052
2190,2043,2129,2041,0056
2049,2056,2135,2068,0061
1935,2095,2131,2085,0065
2202,2107,2069,2103,0070
2173,2096,1973,2072,0075
1925,2083,2019,2042,0080
2083,2065,2122,2063,0085
2139,2048,2074,2051,0090
1871,2047,2022,2062,0095
2090,2076,2035,2054,0101
2230,2086,2097,2086,0106
2047,2071,1973,2032,0112
1961,2055,1976,2050,0117
2207,2077,2025,2083,0123
2065,2095,2113,2080,0129
1927,2069,2110,2079,0135
2171,2074,1948,2024,0141
2140,2077,2028,2070,0147
1891,2075,2003,2054,0153
2096,2064,1928,2026,0159
2226,2082,1766,2018,0165
1938,2055,1831,2043,0172
2023,2064,2089,2114,0179
2171,2030,2324,2103,0186
1970,2018,2500,2077,0194
1873,2013,2546,2104,0202
2079,1990,2295,2031,0210
2000,2001,2044,2009,0219
1856,2018,1882,1993,0228
2103,2036,1829,1997,0238
2179,2067,1849,2023,0248
1971,2065,1552,1946,0259
2045,2031,1547,1905,0269
2212,2082,1875,2059,0280
1911,2020,2232,2107,0291
1913,1996,2165,2062,0301
2173,2036,2004,1983,0312
2043,2067,2017,2021,0323
1939,2077,2263,2098,0334
2197,2075,2394,2175,0345
2127,2060,2289,2139,0356
1942,2086,2029,2105,0367
2193,2158,1973,2083,0379
2249,2144,2017,2087,0390
2021,2132,2215,2144,0402
2160,2172,2143,2192,0414
2286,2125,1754,2002,0426
2035,2082,1694,1994,0438
1816,1899,1489,1762,0449
2019,1905,1676,1941,0461
1897,1921,1600,1895,0473
1798,1942,1954,2033,0484
2232,2102,2613,2187,0496
2132,2086,2775,2230,0508
1911,2123,2905,2213,0521
2175,2159,2637,2205,0534
2271,2151,2453,2112,0547
1903,2075,2173,2063,0561
2001,2016,1829,1961,0576
2226,2059,1758,1998,0591
1849,1978,1643,1897,0606
1847,1967,1623,1885,0621
2246,2042,1339,1841,0637
2314,2323,1414,2126,0651
2325,2510,2027,2417,0666
2830,2689,2781,2749,0679
3448,3286,3399,3351,0693
3197,3443,3487,3407,0706
3847,3903,4095,4058,0720
3319,3174,4087,3369,0733
1737,2041,2751,2144,0747
1623,1799,2005,1883,0761
3528,3152,2987,3104,0775
2554,2880,2793,2862,0789
2075,1965,1716,1872,0804
1458,0767,0183,0600,0818
0535,0772,0185,0646,0832
1119,1632,1018,1457,0846
1649,1200,0220,0975,0859
1622,1211,0628,1149,0871
0405,0913,1036,0985,0883
0795,0931,1337,0973,0895
1272,0787,0894,0826,0906
0701,0878,1375,1091,0917
1252,1494,2016,1625,0929
3191,2933,3873,3163,0941
1439,1598,2711,1795,0955
1256,1505,2096,1537,0968
1234,1088,1345,1074,0984
1149,1361,1021,1196,1000
1684,1921,1172,1679,1017
2156,1635,1331,1629,1036
2044,1825,1506,1731,1054
1616,1984,1558,1861,1072
2092,1997,1761,1962,1090
2562,2215,2070,2184,1107
2277,2514,2263,2454,1122
2314,2448,2310,2449,1137
2701,2369,2296,2360,1151
2349,2396,2455,2390,1164
2014,2240,2184,2233,1176
2397,2180,1956,2105,1187
2332,2221,2000,2103,1198
1883,2269,2397,2313,1207
2292,2311,2611,2351,1216
2541,2328,2609,2514,1224
1999,2274,2408,2307,1231
2195,2267,2335,2288,1237
2463,2165,2090,2150,1243
2037,2151,2036,2145,1248
2037,2222,1951,2113,1253
2398,2134,1979,2090,1257
2213,2199,2518,2330,1260
2005,2256,2504,2369,1263
2344,2205,2132,2217,1266
2249,2128,1875,2089,1268
1918,2094,1872,2030,1269
2033,2002,2149,2097,1269
2203,2033,2340,2127,1270
2019,2124,2279,2177,1270
2045,2152,2310,2185,1270
2304,2135,2191,2121,1270
2030,2058,2031,2020,1270
1994,2160,2020,2068,1269
2175,2066,1905,2022,1269
2104,2053,1972,2047,1268
1889,2057,1955,2029,1267
2306,2262,2088,2187,1266
2376,2293,2171,2248,1264
2024,2184,2243,2222,1262
2040,2066,2106,2065,1259
2168,2011,2025,2006,1256
1722,1849,1776,1815,1252
1893,1977,2014,2036,1248
2182,2000,2037,2043,1244
2023,2109,2127,2100,1240
1963,2104,2092,2076,1236
2239,2071,2014,2056,1231
2112,2083,2015,2058,1227
1835,2056,2039,2019,1222
2237,2129,2231,2147,1217
2196,2087,2135,2097,1211
1927,2107,1950,2060,1206
1962,1977,1869,1927,1200
2232,2029,2025,2040,1193
1850,2002,1950,1992,1186
1895,2044,2065,2061,1179
2364,2152,2310,2247,1172
1992,2059,2055,2079,1164
1831,2049,1989,2029,1157
2284,2043,2011,2037,1149
2164,2089,2233,2118,1141
1914,2144,2251,2152,1133
2254,2147,2130,2134,1125
2273,2090,1983,2044,1117
1827,2046,2002,2029,1109
1963,1997,1917,1978,1100
2195,1967,1846,1923,1090
1869,2000,1927,1976,1081
1886,2036,2051,2039,1070
2265,2083,2046,2063,1059
2084,2086,2110,2111,1047
1892,2066,2201,2137,1035
2215,2042,2173,2120,1023
2186,2123,2107,2120,1010
1808,2067,1987,2038,0997
2085,2004,2029,2006,0984
2181,2015,2085,2023,0971
1868,2057,2071,2061,0958
2079,2133,2031,2086,0944
2256,2035,1832,1992,0930
1969,2062,1957,2029,0916
1908,2077,2116,2089,0902
2205,2046,2153,2065,0887
2171,2116,2125,2115,0872
1863,2029,1966,2014,0856
2175,2066,2009,2047,0840
2172,2061,2061,2066,0824
1755,1924,1839,1898,0807
2000,1987,1976,1979,0790
2285,2110,2254,2172,0773
1963,2099,2268,2160,0755
2020,2067,2094,2082,0737
2159,2012,1863,1980,0719
1961,2029,1909,1984,0701
1850,1987,1963,1993,0682
2238,2034,2018,2043,0664
2217,2140,2104,2127,0645
1877,2116,2054,2074,0627
2194,2123,2077,2090,0608
2183,2029,2020,2025,0590
1974,2148,2128,2125,0571
2047,2085,2049,2055,0552
2240,2080,2087,2085,0534
1938,2034,2011,2002,0515
1936,2072,2095,2085,0496
2258,2094,2133,2095,0477
2047,2053,2146,2070,0459
1887,2031,2084,2045,0440
2194,2059,2060,2062,0422
2155,2115,2078,2096,0405
1863,2049,2005,2038,0388
2109,2055,1984,2027,0372
2123,2018,1943,1985,0356
1933,2111,2071,2092,0341
1979,2010,1980,2016,0327
2205,2016,1985,2034,0314
2039,2116,2079,2116,0301
1960,2111,2089,2115,0289
2281,2117,2092,2136,0277
2077,2052,2020,2057,0266
1857,2034,2005,2043,0256
2105,2025,1899,1991,0246
2135,2033,1843,2011,0237
1885,2052,1839,2045,0228
2063,2056,2073,2081,0219
2197,2042,2206,2056,0211
1879,1987,2171,1995,0204
1972,2023,2070,2023,0198
2232,2086,1980,2085,0192
1963,2076,1968,2088,0187
1977,2072,1979,2056,0182
2221,2070,2113,2032,0178
2056,2057,2080,2016,0175
1925,2066,2130,2082,0173
2155,2059,2068,2083,0172
2174,2051,2103,2128,0171
1941,2102,2042,2087,0171
2044,2058,2013,2023,0171
2178,2032,2127,2025,0172
1914,2040,2216,2045,0172
1922,2047,1951,1969,0173
2216,2044,1856,2012,0174
2020,2024,1983,2086,0177
1901,2019,2079,2070,0180
2195,2103,2033,2072,0184
2115,2068,1916,2046,0189
1886,2059,1961,2029,0195
2106,2035,1992,2093,0202
2184,2066,2208,2091,0209
1902,2053,2237,2093,0217
2013,2013,2169,2034,0226
2264,2105,2149,2069,0235
1977,2107,2092,2069,0244
2035,2151,2199,2126,0255
2309,2132,2216,2139,0265
2062,2063,2085,2071,0277
1872,2036,2029,2045,0289
2189,2039,1965,2036,0301
2150,2047,1817,2012,0313
1874,2083,1794,1980,0326
2108,2050,1899,2017,0339
2179,2058,2065,2051,0353
1879,2041,1948,2039,0366
2005,2021,1967,2053,0380
2246,2085,2175,2112,0393
1987,2077,2232,2079,0408
1901,2036,2174,2043,0422
2197,2019,2074,1996,0436
2019,2023,2041,2031,0450
1835,2028,1986,2041,0465
2174,2060,1899,2018,0479
2114,2031,1965,2037,0494
1814,2023,2064,2029,0509
2002,2028,2048,2002,0523
2294,2082,2022,2085,0538
1978,2123,1835,2063,0553
2116,2184,2119,2146,0568
2379,2177,1911,2126,0582
2034,2125,1717,2019,0597
1958,2127,1907,2073,0611
2187,2003,2372,2191,0626
1985,2009,2304,2040,0640
1824,1982,2093,1968,0655
1992,1938,2072,1923,0670
2121,1992,2525,2096,0686
1835,2026,2667,2240,0701
2045,2061,1977,2060,0717
2246,2077,1336,1915,0733
1929,2045,1329,1914,0749
1953,2043,1775,1966,0765
2198,2044,2098,2068,0780
2070,2095,2187,2052,0795
1957,2112,1962,2051,0810
2239,2081,1704,2002,0825
2071,2026,2051,2015,0840
1879,2033,2143,2093,0855
2122,2067,2037,2053,0870
2162,2020,2158,2143,0885
1919,2047,2563,2109,0900
2002,2024,2562,2099,0915
2177,2055,2137,2058,0931
1979,2079,1516,1995,0947
1957,2018,1371,1839,0963
2220,2083,1636,1936,0980
2042,2074,2495,2276,0996
1919,2071,2398,2146,1012
2184,2118,2861,2412,1029
2195,2101,2454,2065,1046
1904,2088,1657,1806,1063
2114,2037,1837,1945,1080
2195,2039,2128,2129,1097
1929,2077,1787,2014,1113
2056,2127,1833,2044,1130
2255,2073,1639,2032,1146
1947,1977,1614,1994,1161
1894,2020,2153,2126,1176
2210,2066,2342,2052,1191
2048,2043,1938,1897,1205
1894,2047,2226,2119,1219
2205,2117,2440,2250,1233
2142,2089,1869,2095,1246
1943,2129,2192,2199,1259
2089,2057,2116,1978,1272
2235,2077,2268,2079,1284
1847,2059,2221,2019,1296
2048,2103,1811,2012,1308
2274,2049,1623,1920,1319
1990,2079,1857,1969,1329
1863,2027,2018,2041,1339
2271,2084,2166,2152,1348
2083,2083,2155,2154,1357
1866,2049,2047,2067,1365
2178,2032,1924,1987,1372
2127,1999,1930,1978,1379
1761,1971,1960,1975,1384
2046,2030,1841,1947,1389
2199,1986,2027,2026,1393
1794,1993,1904,1939,1397
1892,1997,1987,1997,1399
2289,2080,2281,2121,1401
1943,2058,2237,2120,1402
1887,2100,2225,2118,1402
2217,2019,1935,1996,1402
1995,1989,1815,1944,1402
1791,2055,2086,2090,1401
2133,2014,2015,2010,1401
2182,2041,2042,2047,1399
1799,2038,2008,2025,1397
2122,2101,2079,2100,1395
2326,2130,2046,2083,1391
1996,2156,2148,2168,1387
2043,2138,2140,2150,1381
2356,2166,2248,2188,1375
2103,2139,2084,2104,1368
1953,2127,2139,2129,1360
2374,2213,2290,2258,1351
2310,2229,2259,2235,1341
1945,2200,2199,2194,1331
2271,2174,2089,2114,1321
2324,2167,2170,2173,1309
1950,2179,2192,2187,1297
2081,2121,2066,2097,1285
2265,2053,2032,2056,1272
1843,2009,1989,1997,1259
1795,1944,1779,1890,1245
2136,1940,1818,1916,1230
1856,1909,1969,1955,1215
1666,1890,1993,1945,1200
2019,1894,1974,1919,1184
2025,1931,1889,1894,1167
1701,1971,1928,1923,1150
2053,1983,2028,1981,1132
2209,1993,2128,2078,1114
1884,2043,2089,2063,1096
2080,2074,2094,2096,1077
2297,2038,1882,1967,1058
1881,1994,1851,1967,1039
1854,2021,2024,2020,1019
2221,1998,1986,2012,0998
1988,1967,1975,1977,0977
1755,1941,1974,1987,0956
2114,1959,1924,1973,0935
2099,1988,1742,1927,0913
1809,2024,1871,1980,0891
2064,2030,2138,2003,0870
2221,2044,2463,2172,0848
1888,2048,2325,2138,0826
2006,2065,1958,2029,0805
2274,2052,1816,2011,0785
1983,2069,2011,2029,0765
1847,2025,2043,2028,0745
2214,2040,2049,2026,0725
2108,2061,2060,2047,0705
1822,2075,2039,2064,0685
2219,2071,1895,2044,0665
2184,2068,1822,2003,0645
1953,2121,2004,2095,0625
2083,2099,2211,2091,0604
2269,2102,2379,2130,0583
2017,2147,2267,2144,0561
2145,2241,2002,2179,0539
2337,2175,1904,2133,0518
2111,2132,2179,2149,0496
1943,2083,2267,2116,0475
2224,2091,2277,2105,0455
2175,2144,2095,2122,0435
1982,2151,1983,2108,0416
2140,2114,1996,2120,0398
2259,2121,2033,2106,0381
1991,2152,2205,2159,0365
2154,2148,2122,2132,0350
2306,2132,2044,2140,0337
2070,2145,1941,2129,0324
2027,2121,2048,2126,0312
2316,2167,2094,2180,0301
2184,2180,2200,2198,0291
1907,2077,2129,2080,0283
2093,2012,2115,2033,0275
2042,1950,2024,1941,0269
1789,1935,1724,1901,0264
2000,1974,1845,1972,0260
2154,2004,1999,1992,0257
1837,1995,1960,1992,0254
1960,2040,1945,2006,0253
2187,2049,2169,2094,0253
1981,2059,2114,2054,0253
1918,2018,1951,1984,0253
2168,2033,2064,2057,0254
2028,2011,2296,2021,0256
1847,2043,2403,2090,0258
2118,2051,1969,1962,0261
2109,2031,1541,1946,0266
1839,2011,1833,2012,0272
2067,2020,2079,2059,0279
2206,2077,2073,2064,0287
1900,2060,1958,2037,0296
1943,2028,2128,2040,0305
2215,2027,2139,2039,0314
1973,2021,1997,2064,0325
1902,2028,1970,1964,0335
2186,2055,1955,2012,0347
2006,2024,2290,2059,0358
1907,2012,2214,2113,0370
2217,2107,2024,2022,0382
2211,2083,1784,2049,0395
1904,2083,1906,1999,0409
2030,2051,2190,2134,0423
2243,2085,2278,2028,0438
1961,2093,2123,2083,0454
2012,2119,1873,2075,0470
2318,2146,1594,2094,0487
2067,2113,1775,2123,0504
1905,2083,2500,2135,0521
2213,2047,2921,2163,0538
2067,2051,2643,2045,0556
1809,2020,1701,1886,0574
2086,1994,1327,1903,0592
2214,2029,1715,2048,0610
1869,2069,1886,2125,0628
2024,2052,1792,2040,0647
2205,1980,1974,2042,0665
1843,1970,2140,1962,0683
1824,1934,2322,2016,0701
2167,2032,2005,1889,0718
2023,2001,1413,1859,0736
1854,1979,1874,2064,0754
2171,2029,2219,2108,0772
2091,2007,1631,2025,0790
1854,2082,1569,1952,0808
2117,2082,2265,2075,0826
2205,2071,3593,2494,0844
1893,2071,2802,2107,0863
2031,2055,1545,1901,0882
2252,2080,1611,1903,0902
2003,2097,2389,2133,0921
1903,2047,2035,2076,0941
2247,2074,1597,1987,0961
2120,2136,1677,1953,0980
1903,2023,1828,1936,1000
2164,1971,1721,1996,1018
2164,2039,1887,2074,1037
1892,2099,2162,2126,1055
2164,2094,2688,2243,1073
2323,2155,2621,2123,1090
1891,2016,2177,2023,1108
1998,2080,1576,1883,1126
2287,2102,1849,2006,1144
1959,2078,2398,2176,1161
1853,1988,2407,2084,1178
2287,2124,2181,2071,1195
2040,1918,1451,1803,1211
1919,2133,1839,2063,1227
2160,2059,2093,2093,1242
2116,2089,1727,1870,1256
1897,2105,1599,1881,1269
2109,2064,2073,2185,1281
2230,2061,2323,2177,1293
1899,2061,2252,2125,1304
1937,2068,2092,2019,1315
2115,1900,1911,1932,1325
1944,1970,1880,1951,1334
1773,1869,1903,1912,1343
2282,2128,2079,2045,1352
2085,2087,2018,2022,1359
1944,2096,2107,2058,1365
2149,2058,2050,2036,1371
2278,2152,2155,2208,1376
1829,2030,1950,2011,1379
2027,1995,2012,2029,1382
2267,2030,1999,2091,1383
2024,2213,2048,2238,1383
2018,2229,2122,2272,1383
2270,2086,2188,2125,1382
2010,2022,2281,2060,1380
1846,2066,2214,2075,1377
2187,2029,2067,2064,1373
2180,2061,2028,2030,1368
1873,2035,2047,2031,1360
2127,2041,1999,2031,1352
2275,2046,1956,2025,1341
1835,2033,2033,2037,1330
1791,1983,1925,1955,1318
1994,2005,1938,2007,1304
1754,2058,2054,2085,1289
1839,2050,1777,1960,1274
2261,2059,2054,2098,1258
2060,2045,2203,2099,1240
1886,2052,2166,2085,1222
2196,2067,2166,2102,1203
2183,2039,2057,2035,1183
1936,2071,2102,2035,1162
2147,2054,2291,2150,1140
2354,2093,1968,2069,1118
2029,2090,1849,2025,1095
2031,2078,1921,2031,1072
2251,2047,1997,2017,1049
2039,2045,1928,2028,1025
1915,2025,2035,2020,1001
2237,2091,2260,2141,0976
2095,2043,2061,2056,0952
1852,2043,2041,2032,0927
2081,2027,1852,1989,0903
2192,2078,2143,2034,0879
1898,2042,2357,2164,0855
2057,2042,2231,2089,0832
2262,2045,2056,2076,0809
1920,2035,1936,2009,0786
1905,2019,1929,1999,0764
2233,2056,1946,2029,0742
1939,2020,1775,1948,0720
1846,1992,1793,1945,0699
2226,2067,1970,2040,0677
2063,2027,2016,1998,0655
1840,2043,2152,2035,0632
2134,2045,1991,2027,0610
2171,2055,2066,2042,0587
1907,2103,2233,2121,0565
2126,2155,2288,2147,0543
2357,2163,2253,2151,0522
2013,2129,2085,2100,0501
1997,2106,2019,2086,0481
2277,2089,2048,2075,0462
2031,2063,2011,2038,0442
1889,2056,1976,1992,0423
2159,2008,1959,1950,0404
2101,2020,1995,2019,0386
1926,2120,2107,2184,0367
2076,2049,2003,2086,0349
2216,2094,2032,2119,0332
1915,2063,1946,2041,0314
2007,2072,1918,2049,0297
2182,2027,1894,2022,0281
2006,2085,2098,2074,0265
1948,2056,2275,2097,0250
2211,2080,2232,2072,0236
2008,2023,2086,2011,0223
1875,2053,1954,2018,0210
2146,2050,1912,2033,0199
2150,2063,1903,2035,0188
1899,2068,1938,2072,0179
2101,2088,2080,2098,0171
2222,2082,2139,2090,0164
1913,2049,1938,2031,0157
2008,2081,1811,2067,0152
2266,2104,2048,2123,0148
2032,2094,2369,2154,0145
1920,2043,2447,2041,0143
2243,2091,2270,2041,0142
2069,2047,1891,1965,0142
1881,2056,1703,1989,0142
2134,2036,1754,1989,0143
2116,2028,2004,2008,0144
1882,2063,2109,2093,0145
2046,2056,2035,2117,0147
2232,2065,1971,2088,0151
1937,2067,2194,2082,0155
1983,2060,2322,2042,0161
2227,2071,2308,2049,0167
2034,2092,2102,2068,0175
1902,2057,1894,2012,0184
2195,2079,1795,2046,0193
2155,2066,1935,2098,0203
1931,2101,2135,2143,0213
2161,2091,2187,2088,0225
2187,2091,1865,2034,0237
1895,2051,1957,2023,0249
2017,2012,2281,2067,0262
2185,2056,2205,2094,0276
1988,2096,2149,2064,0291
1968,2116,1945,2095,0306
2263,2086,2359,2108,0323
2072,2057,2279,2128,0340
1894,2080,1825,2020,0357
2177,2093,1894,2071,0376
2153,2081,2057,2081,0394
1903,2059,2078,2042,0413
2048,2040,2035,2020,0433
2186,2021,1918,2031,0453
1865,2005,1556,1978,0473
1951,2001,2031,2015,0493
2177,1973,2078,1995,0514
1900,2034,2277,1952,0536
1908,2025,2177,2086,0557
2244,2075,2139,2089,0579
2092,2094,2326,2238,0601
1935,2132,2240,2136,0624
2198,2068,1593,2011,0647
2187,2090,1622,1951,0670
1873,2026,2206,2098,0693
2035,2058,2992,2256,0716
2249,2110,2705,2177,0739
1958,2112,1998,2031,0762
2127,2199,1438,2008,0785
2283,2172,1502,1961,0807
1908,2029,1831,2094,0830
1713,1919,2168,1916,0852
2081,1919,1664,1861,0873
2028,1937,1409,1670,0894
1860,2003,2069,2035,0915
2084,2032,2995,2362,0935
2061,1978,2257,2031,0955
1914,2095,1851,1998,0975
2085,2062,1959,1981,0995
2274,2151,2533,2252,1014
1990,2091,2489,2254,1033
2011,2100,1829,2044,1053
2223,2038,1469,1805,1071
2001,2018,1949,2024,1089
1883,1979,1967,1941,1107
2190,2051,2101,2081,1124
2173,2215,2504,2287,1140
1899,2066,2019,2050,1156
2159,2010,1775,1957,1172
2170,2082,1861,1992,1186
1823,2031,1879,1943,1200
2064,2071,1899,1994,1213
2313,2130,2014,2072,1226
1985,1986,2043,2047,1237
1894,2048,1946,1935,1248
2227,2035,1958,1945,1258
2001,2028,2050,1994,1268
1935,2106,2172,2143,1276
2271,2151,2131,2247,1284
2133,2127,2101,2167,1291
1990,2273,2225,2285,1297
2093,2022,2028,2057,1302
2231,2141,2151,2179,1306
1915,2081,2036,2106,1308
1989,2037,2004,2019,1309
2193,2033,2075,2037,1310
1958,2043,2011,2020,1309
1944,2038,2015,2023,1308
2216,2047,2101,2049,1306
2030,2061,2147,2037,1303
1852,2024,2164,2053,1298
2176,2047,2074,2039,1293
2037,2033,1999,2024,1285
1779,2043,2037,2046,1277
2109,2069,2046,2064,1268
2181,2052,1965,2030,1258
1877,2039,1906,1984,1246
1957,2043,2107,2090,1234
2160,2051,2126,2124,1220
1937,2062,1912,2039,1206
1865,2053,1923,2044,1191
2278,2076,2087,2073,1175
2047,2046,2285,2106,1159
1953,2094,2357,2159,1142
2199,2005,1911,1958,1124
2177,2053,2005,2031,1105
1877,2065,2131,2083,1087
2140,2072,2142,2067,1067
2281,2076,2047,2062,1047
1933,2035,1934,2010,1027
1981,2057,1874,1988,1006
2308,2081,1925,2061,0985
2068,2095,1971,2048,0964
1915,2062,2052,2066,0942
2233,2058,1957,2054,0920
2107,2071,1907,1977,0897
1817,2039,2276,2141,0874
2216,2064,2517,2159,0852
2142,2002,2372,2141,0829
1815,2045,2044,2037,0808
2021,2008,1894,1991,0787
2240,2098,2007,2037,0768
1892,2041,1950,2026,0749
1984,2098,1969,2057,0732
2233,2062,1981,2025,0714
2024,2080,2053,2053,0697
1933,2086,1939,2043,0679
2228,2102,1883,2052,0661
2161,2072,1930,2065,0643
1871,2064,2105,2050,0624
2037,2009,2067,1988,0604
2232,2065,2079,2031,0585
1895,2074,2023,2045,0565
2037,2054,2191,2103,0546
2265,2085,2235,2098,0527
1919,2005,2130,2025,0509
1927,2046,1992,2006,0491
2207,2027,1947,2011,0473
2030,2063,1999,2053,0456
1827,2031,1947,2019,0439
2163,2045,1957,2033,0422
2143,2059,2009,2054,0406
1930,2122,2047,2064,0390
2101,2062,2019,2045,0374
2209,2059,1997,2054,0359
1910,2049,1822,2076,0344
2005,2082,1905,2094,0330
2246,2108,2030,2106,0317
1981,2037,2253,2066,0303
1912,2009,2345,2067,0291
2164,2045,2110,2040,0279
2090,2063,1825,2010,0268
1903,2052,1667,1999,0257
2113,2048,1818,2071,0248
2134,2061,2247,2087,0239
1919,2052,2389,2077,0231
2071,2045,2379,2053,0224
2230,2072,2115,2073,0219
1947,2088,1936,2077,0214
1950,2094,1897,2089,0211
2309,2084,2056,2108,0209
2043,2061,2097,2103,0208
1945,2053,1925,2035,0207
2195,2061,1761,1992,0207
2043,2036,1742,1998,0208
1928,2035,2021,2043,0208
2105,2034,2189,2068,0210
2187,2044,2163,2082,0212
1872,2017,2003,2081,0215
1970,2063,1967,2021,0220
2172,2070,2098,2031,0226
1960,2023,2286,2059,0233
1947,2029,2132,2063,0242
2229,2105,2099,2100,0252
2058,2037,2241,2145,0262
1920,2019,2077,2067,0274
2155,2074,2209,2099,0287
2149,2093,2034,2099,0301
1889,2098,2266,2112,0315
2131,2115,2118,2083,0331
2268,2092,1960,2026,0348
1921,2072,1839,2005,0365
2095,2102,1967,2061,0383
2283,2091,1829,2052,0402
1990,2119,1802,2094,0421
1986,2080,1974,2076,0441
2259,2054,2517,2219,0461
2051,2066,2075,2041,0481
1880,2023,2111,2009,0502
2166,2064,2261,2127,0523
2099,2031,2299,2051,0544
1809,2081,2059,2165,0566
2087,2070,1712,1936,0589
2210,2076,1962,2024,0611
1895,2047,2279,2007,0634
2015,2047,2438,2104,0657
2247,2070,2159,2027,0680
2000,2096,1869,2041,0704
1971,2078,1802,2036,0727
2256,2051,1405,2009,0749
2008,2013,2005,2026,0772
1773,1926,2136,2002,0794
2095,1989,2114,2047,0816
2081,2015,1911,1961,0837
1798,2049,1952,1992,0858
2043,2076,2279,2144,0879
2175,2018,2117,2020,0900
1941,2067,1916,2047,0920
2064,2093,2098,2162,0940
2242,2040,2160,2114,0959
2015,2084,2134,2139,0978
1927,2094,2098,2012,0996
2249,2037,2035,2039,1014
2040,2009,2039,1979,1032
1801,1986,1679,1841,1049
2129,2029,1715,1921,1065
2153,2038,2152,2139,1081
1865,2056,2103,2079,1096
2036,2050,2062,2064,1111
2212,2038,1863,1963,1124
1904,1950,1866,1962,1138
1965,2019,1973,2014,1150
2216,2117,1952,1981,1162
1979,2021,1918,1955,1173
1866,2035,1988,2011,1184
2176,1921,1992,1993,1193
2202,2226,2157,2150,1202
1936,2138,2114,2093,1211
2143,2077,2116,2087,1219
2302,2183,2177,2200,1226
1953,2125,2126,2165,1232
1996,2025,1997,2015,1238
2179,2007,1989,1975,1242
1941,2055,2080,2080,1246
1985,2148,2191,2185,1249
2275,2108,2125,2160,1251
2085,2083,2060,2082,1252
1902,2092,2104,2099,1252
2179,2056,2070,2061,1252
2112,2013,2015,2013,1251
1872,2057,1981,2018,1249
2049,2035,2052,2048,1247
2182,2044,2035,2031,1243
1887,2059,2026,2037,1238
1999,2049,2111,2085,1232
2266,2081,2127,2115,1225
1977,2064,2125,2081,1216
1911,2003,1939,1964,1207
2159,2045,1999,2013,1196
2006,2063,2108,2077,1185
1820,2049,2119,2077,1173
2140,2071,2001,2013,1160
2114,2046,1989,2025,1146
1892,2055,2104,2110,1132
2066,2042,2097,2076,1116
2217,2032,2044,2042,1100
1922,2021,1987,2029,1082
1984,2043,1838,1969,1064
2252,2080,1941,2047,1045
2026,2086,2148,2130,1025
1940,2034,2294,2145,1004
2250,2085,2115,2059,0983
2130,2089,2017,2032,0960
1941,2099,2139,2101,0937
2191,2072,2275,2168,0915
2210,2031,2136,2098,0892
1856,2019,1948,2006,0869
2036,2007,1955,1988,0846
2257,2041,2015,2048,0823
1956,2032,1837,1983,0801
1960,2036,1737,1972,0778
2163,2017,1965,1999,0755
2008,2024,2137,2062,0732
1880,2059,2189,2042,0708
2201,2055,2007,1989,0684
2123,2047,1957,1991,0660
1853,2095,2126,2097,0637
2156,2134,2277,2184,0613
2251,2133,2192,2159,0590
1943,2112,2141,2111,0567
1989,1989,1996,2008,0545
2205,2077,1993,2022,0523
1931,2047,1983,2024,0502
1923,2074,1970,2027,0482
2193,2033,1954,1964,0462
2033,1989,1961,1935,0443
1907,2062,2127,2175,0425
2196,2058,2011,2079,0407
2137,2078,2043,2102,0390
1937,2051,2039,2045,0373
2157,2093,2091,2086,0356
2225,2110,2085,2128,0340
1907,2046,1979,2029,0325
2006,2039,2011,2026,0310
2222,2056,2066,2078,0296
1981,2059,2038,2058,0282
1937,2042,2021,2027,0269
2203,2023,2013,2043,0256
2023,2035,1927,2010,0244
1844,2011,1854,1975,0233
2101,2011,1828,1983,0223
2101,2014,2085,2059,0214
1871,2037,2298,2094,0205
2061,2032,2255,2030,0197
2208,2057,2035,2015,0190
1941,2056,1835,2012,0184
1959,2058,1608,2023,0179
2268,2062,1838,2080,0175
1975,2040,2003,2036,0172
1930,2038,2327,2069,0170
2201,2053,2251,2039,0168
2073,2072,2015,2063,0167
1879,2025,1995,2040,0168
2141,2040,2253,2094,0168
2144,2064,2346,2114,0168
1901,2089,2078,2060,0169
2093,2124,1974,2069,0171
2306,2090,1822,2081,0173
1963,2100,1988,2101,0177
2050,2128,2115,2157,0183
2296,2123,2273,2191,0189
2041,2073,2175,2100,0198
1988,2099,2003,2056,0207
2170,2082,1983,2048,0218
2083,2039,1792,2074,0230
1848,2021,2085,2075,0243
2086,2048,1950,1989,0257
2228,2126,2329,2097,0272
1890,2128,2570,2088,0288
2076,2100,2557,2155,0305
2213,2045,2035,2045,0323
1923,2061,1687,1968,0342
1948,2049,1831,2031,0362
2238,2060,2145,2084,0382
2101,2061,2343,2114,0403
1859,2019,1845,1947,0425
2210,2100,1769,2019,0447
2135,2088,1475,1981,0469
1829,2025,1830,2026,0492
2056,2043,1873,1982,0515
2157,1974,2014,2055,0538
1893,2011,2033,2075,0561
1939,2041,2085,1962,0585
2374,2142,2639,2263,0608
1982,2094,2598,2232,0632
1915,2059,2259,2176,0656
2179,2024,1668,1860,0680
1921,1984,1522,1829,0705
1763,1991,1441,1919,0729
2098,1994,1983,2048,0753
2137,2043,2323,2074,0778
1817,2022,2439,2075,0802
2050,2058,2521,2085,0827
2247,2013,2207,2083,0852
2014,2076,1946,1955,0876
2028,2117,2032,2131,0901
2310,2160,2392,2249,0925
2000,2077,2143,2101,0949
1920,2102,1115,1881,0973
2203,1996,1306,1783,0997
2035,2012,2417,2186,1021
1950,2104,3096,2380,1043
2211,2157,2604,2182,1066
2210,2014,1543,1908,1088
1935,2041,1598,1931,1109
2148,2073,1968,2031,1129
2184,2033,1834,1966,1149
1965,2176,1875,2019,1168
1985,1923,1903,1986,1186
2207,2030,1989,2049,1203
2020,2091,1933,2026,1219
1903,2052,1949,2011,1234
2133,1990,1945,1962,1249
2176,2066,2075,2059,1263
1858,1952,2019,2015,1277
2114,2135,2079,2024,1290
2138,1936,1987,1947,1302
1807,1984,1991,1901,1314
1972,2060,2051,1930,1324
2270,2083,2085,2049,1334
2077,2248,2228,2332,1342
1980,2139,2122,2324,1349
2337,2224,2225,2443,1353
2147,2176,2161,2267,1357
1945,2089,2066,2110,1358
2185,2069,1988,2078,1358
2084,2016,1800,1945,1358
1884,1972,1944,1955,1356
2135,2085,2271,2066,1354
2148,2035,2376,2093,1350
1867,2069,2223,2065,1344
1854,2009,1970,1983,1337
2059,2001,1929,1986,1328
1947,2020,2015,2000,1318
1847,2039,1962,2003,1307
2188,2060,2016,2047,1294
2070,2072,2137,2129,1280
1853,2026,2052,2049,1265
2135,2056,2078,2091,1249
2158,2082,2017,2054,1232
1891,2037,1932,1997,1214
2011,2014,1827,1958,1195
2172,1986,1803,1922,1175
1881,1995,2049,2025,1154
1993,2049,2319,2170,1132
2242,2067,2150,2088,1109
2002,2034,2040,2011,1085
1887,2034,2113,2050,1061
2202,2077,2191,2105,1036
2182,2101,2227,2162,1011
1916,2031,1891,2012,0986
2251,2072,1785,1989,0960
2223,2065,1916,2021,0935
1840,2046,2109,2017,0909
2097,2048,2252,2072,0883
2280,2064,2036,2063,0857
1927,2067,1976,2050,0831
1971,2031,2067,2038,0806
2234,2000,2112,2031,0781
1912,2003,1937,2028,0756
1984,2056,1886,2045,0732
2213,2069,2154,2112,0708
2123,2072,2211,2050,0684
1874,2050,2052,2031,0660
2066,2026,1920,2001,0637
2171,2096,2055,2055,0615
1900,2053,2144,2056,0592
2122,2141,2144,2116,0570
2284,2091,1987,2050,0547
2027,2172,2047,2117,0525
2022,2131,2102,2101,0503
2286,2128,2104,2089,0482
2000,2027,1988,2034,0461
1810,1994,1940,1987,0440
2132,2013,1952,2012,0419
2117,2028,1948,2018,0399
1884,2082,1971,2076,0379
2105,2069,1986,2081,0360
2164,2033,1955,2026,0341
1846,2022,2087,2052,0323
1984,2070,2096,2054,0305
2305,2105,2168,2136,0288
2000,2072,2192,2069,0273
1938,2049,2183,2077,0258
2159,1993,2017,1968,0244
1963,1988,1897,1961,0231
1844,2026,1845,1991,0220
2096,1995,2004,2016,0209
2102,1983,2072,2025,0199
1837,2014,1872,1987,0191
2079,2039,1718,1999,0183
2215,2052,1953,2090,0177
1907,2041,2214,2090,0171
2114,2173,2256,2173,0167
2205,2067,1731,2005,0164
2002,2071,1595,1989,0161
2056,2163,1909,2136,0160
2119,2014,2175,2077,0160
2145,2082,2424,2107,0160
1911,2051,2256,2062,0160
2084,2037,2301,2036,0161
2171,2097,2296,2116,0162
1939,2085,2297,2091,0165
2047,2041,2233,2093,0169
2211,2075,1915,2097,0174
2005,2079,1768,2055,0181
2000,2075,1581,2011,0190
2213,2056,1849,2022,0200
2042,2073,2149,2103,0212
1954,2074,2306,2127,0224
2222,2111,2293,2106,0238
2164,2036,2140,2084,0253
1878,1999,2211,2043,0270
2093,2118,2329,2192,0288
2215,2145,2445,2136,0307
1955,2147,2498,2184,0328
2066,2074,2349,2030,0350
2270,2131,1756,2036,0373
1994,2165,1786,2033,0397
2021,2108,1758,2075,0422
2273,2065,1665,2011,0446
1983,1995,1332,1893,0471
1820,1953,1951,1952,0496
2088,1916,2409,2052,0521
2099,2054,2527,2159,0547
1890,2087,1927,1943,0572
2075,2112,1618,1862,0598
2136,1990,1876,2013,0624
1883,1997,2445,2098,0650
1891,1941,2405,2219,0676
2166,2050,2036,1996,0702
1927,2038,1995,2057,0729
1862,2065,2168,1973,0755
2235,2095,2361,2175,0781
2129,2128,2213,2169,0807
1935,2092,1789,1962,0833
2164,2059,1972,1963,0859
2126,2001,2246,2055,0884
1919,2048,2058,2060,0909
2074,1991,1307,1799,0933
2253,2035,1580,1985,0957
1897,1975,2210,2183,0980
1984,2110,2314,2210,1003
2258,2151,2620,2258,1026
2016,2082,2482,2114,1048
1902,1951,1981,1927,1070
2378,2255,1956,2053,1092
2190,2096,1539,1945,1113
1922,2207,1884,2051,1134
2079,1923,1926,1955,1155
2225,2143,1952,2006,1174
1865,2032,2174,2095,1193
2064,2010,2446,2259,1211
2160,1934,2144,2045,1228
1883,2028,1681,1858,1245
1941,2130,1824,1955,1262
2239,2080,1997,2039,1277
2035,2001,1896,1979,1292
1831,1894,1871,1898,1307
2118,2050,1929,1905,1320
2117,1983,2067,2058,1333
1789,1947,1929,1943,1345
2158,2127,2081,2079,1356
2105,2012,1991,1937,1366
2006,2167,2177,2160,1374
1836,1875,1912,1900,1381
2387,2224,2200,2309,1386
2063,2237,2222,2327,1390
2012,2224,2158,2252,1392
2274,2067,2025,2131,1392
2091,2108,2095,2125,1392
1836,2045,1956,2028,1391
2231,2055,2043,2050,1389
2147,2051,2145,2076,1386
1816,2018,2095,1983,1382
2174,2080,2181,2089,1377
2199,2012,2008,1980,1370
1769,1989,2031,2014,1361
1978,2040,2112,2081,1351
2122,1994,1974,1992,1340
1852,1925,1885,1921,1328
1871,2006,2005,2020,1314
2073,2049,2047,2057,1299
2105,2163,2121,2154,1283
1846,2024,1975,2032,1266
2207,2063,2010,2065,1249
2151,2058,1922,2032,1229
1861,2047,2015,2073,1210
2034,2052,2143,2078,1189
2258,2078,2085,2054,1167
1863,2000,2108,2022,1145
1999,2034,2069,2016,1121
2274,2116,2165,2075,1097
2028,2031,2249,2143,1072
1956,2076,2073,2080,1046
2240,2034,2010,2055,1020
2128,2042,1937,2006,0993
1907,2029,1881,1983,0966
2176,2049,1923,2003,0939
2244,2081,1997,2060,0911
1915,2074,1848,2048,0883
2033,2024,1961,1989,0855
2298,2055,2002,1988,0827
1859,2011,2272,2072,0799
2066,2096,2360,2161,0772
2285,2090,2249,2181,0745
2001,2120,2198,2168,0718
1879,2004,1998,2007,0692
2142,1968,1925,1982,0668
2193,2129,2057,2092,0644
1842,2048,1979,2015,0621
2076,2007,1878,1921,0598
2091,1945,1855,1902,0576
1887,2074,2008,2062,0554
2056,2089,1976,2087,0533
2273,2097,1903,2055,0512
1993,2093,1914,2019,0490
1976,2056,2154,2109,0469
2249,2144,2131,2081,0448
2040,2076,2095,2040,0427
1897,2103,2053,2043,0407
2192,2073,2173,2113,0387
2177,2136,2277,2141,0369
1902,2117,2260,2162,0351
2136,2086,2144,2075,0334
2188,2072,1993,2050,0318
1930,2107,1919,2039,0304
2111,2080,1945,2079,0290
2221,2027,2026,2039,0278
1944,2004,2053,2030,0267
1845,1981,1929,1988,0257
2077,1949,1910,1950,0248
1975,1968,1989,1985,0240
1853,2025,1995,2013,0232
2175,2078,1951,2062,0226
2148,2047,1807,2040,0220
1900,2058,1775,2045,0216
2018,2036,1883,2019,0212
2201,2056,2002,2070,0209
1929,2056,2111,2073,0207
1984,2061,2106,2063,0205
2286,2075,2306,2086,0204
2031,2098,2464,2069,0204
1903,2057,2359,2083,0205
2253,2123,2175,2070,0205
2011,2034,2019,2054,0207
1942,2070,2184,2082,0209
2157,2068,1883,2036,0212
2193,2070,1653,1971,0216
1904,2097,1600,2091,0221
2019,2030,1981,2032,0227
2212,2059,2283,2157,0235
1971,2074,2106,2095,0243
2002,2089,1793,2040,0253
2165,2075,1707,2014,0264
1954,2051,2429,2193,0275
1965,2045,2532,2065,0288
2166,2013,2224,2113,0303
2133,2063,2065,2158,0318
1884,1983,2312,2019,0335
2059,2059,2329,2097,0354
2276,2191,2059,1979,0374
1949,2103,1691,2012,0395
2078,2104,1767,2061,0418
2219,2024,2447,2129,0441
1979,2083,2151,2130,0466
2072,2143,1771,2071,0491
2283,2132,1929,2161,0516
2093,2148,2863,2289,0542
1814,2048,2853,2104,0569
2146,2056,1940,1933,0595
2070,1956,1011,1705,0622
1836,1955,1112,1839,0649
2051,1957,1889,1960,0676
2128,1998,2313,2016,0702
1910,2108,2369,2059,0729
2056,2080,2040,2066,0755
2257,2093,2045,2116,0781
1982,1992,1748,1973,0807
1928,2039,1879,2035,0832
2238,2074,2529,2229,0857
2022,2011,2274,2153,0881
1850,2019,2157,2060,0906
2183,2076,1749,2024,0930
2121,2117,2262,2088,0953
1808,2104,2186,2052,0977
2067,2021,1981,1946,1000
2146,1996,1589,1798,1022
1827,2006,1857,2035,1044
1961,1911,2155,2117,1065
2283,1973,1881,1994,1086
1972,2047,1493,1875,1107
2013,2151,2016,2122,1126
2231,2084,2253,2145,1145
2103,2123,2245,2119,1163
1847,1993,1932,1939,1180
2101,1923,1837,1930,1197
2185,2087,2032,2087,1213
1886,2019,2081,2089,1229
2047,2077,1931,2002,1244
2288,2111,1974,2017,1258
1924,2056,2011,2034,1272
1943,2037,2010,2018,1286
2287,2104,2013,2026,1298
2047,2027,2073,1995,1310
1756,1908,1878,1753,1322
2281,2069,2127,2140,1332
2067,1992,2018,2033,1342
1910,2116,2154,2176,1350
2176,2157,2154,2219,1358
2259,2165,2162,2247,1364
1867,2111,2099,2238,1368
2023,2136,2078,2137,1371
2228,2113,2108,2095,1373
1961,2106,2089,2099,1373
1943,2032,2059,2048,1372
2299,2069,2080,2048,1370
2018,2035,2047,2019,1368
1842,1970,1943,1934,1364
2232,2042,2031,2015,1359
2073,2054,2066,2046,1352
1895,2111,2150,2125,1344
2012,1951,1967,1962,1334
2159,2094,2129,2096,1322
1904,2077,2103,2067,1310
2054,2114,2136,2120,1296
2247,2045,2021,2048,1282
1893,2019,1980,2027,1266
1842,2038,2018,2050,1249
2079,2008,1972,1996,1230
2051,2032,1942,1987,1211
1814,2027,1945,2000,1191
2142,2057,2082,2078,1169
2103,2018,1826,1967,1147
1818,2027,1864,1977,1123
2056,2059,2200,2121,1099
2225,2069,2359,2161,1073
1929,2078,2347,2159,1047
1984,2023,1843,1914,1020
2236,2048,1919,1985,0993
2139,2127,2281,2208,0966
1978,2099,2216,2139,0938
2350,2132,2103,2116,0911
2191,2093,1964,2034,0883
1908,2046,1921,1994,0856
2199,2038,1754,1973,0829
2184,2030,1757,1985,0802
1859,1985,1875,1967,0776
2007,2036,2130,2010,0749
2231,2058,2361,2103,0722
1966,2035,2320,2101,0696
2014,2083,2259,2119,0669
2227,2025,1903,2008,0642
2065,2093,1813,2018,0616
1865,2038,1906,2019,0591
2189,2088,2180,2074,0566
2130,2081,2230,2053,0542
1938,2130,2180,2136,0519
2149,2122,2037,2110,0496
2214,2116,2024,2085,0474
1906,2071,1971,2021,0452
2042,2084,1937,2045,0431
2259,2073,1923,2064,0410
2001,2102,2051,2081,0390
1967,2064,2046,2045,0370
2260,2097,2088,2088,0349
2072,2083,1993,2080,0330
1909,2071,1905,2055,0311
2174,2075,2054,2093,0292
2171,2095,2103,2094,0274
1882,2069,2111,2080,0256
2090,2049,2038,2022,0240
2200,2067,1935,2021,0225
1917,2069,1971,2062,0211
1935,2043,2023,2045,0198
2191,1979,2200,2057,0187
1952,1977,2289,2007,0177
1904,1999,2142,2006,0169
2181,2011,1972,1982,0163
2001,1999,1871,2001,0158
1829,2024,1919,2034,0154
2102,2025,1795,1997,0152
2129,2031,1721,1978,0151
1903,2054,1760,1999,0151
2068,2072,2090,2085,0151
2207,2087,2281,2125,0151
1988,2112,2127,2065,0152
1972,2096,1766,2074,0154
2272,2114,1692,2023,0156
2001,2064,1882,2092,0160
1955,2098,2504,2125,0165
2244,2050,2471,2113,0172
2067,2114,2206,2119,0181
1952,2067,2332,2151,0190
2128,2075,2396,2134,0201
2159,2087,2221,2110,0214
1916,2055,2081,2052,0227
2027,2052,1906,2043,0241
2198,2118,1706,2014,0257
1984,2040,1909,2109,0273
1956,2033,1977,2069,0291
2251,2049,2427,2143,0310
2060,2095,2501,2109,0329
1984,2141,1927,1962,0350
2221,2113,2093,2086,0371
2197,2125,2091,2087,0393
1932,2101,2210,2068,0416
2152,2106,1954,2068,0440
2214,2036,1491,1998,0464
1856,1996,1640,1999,0488
2018,2008,2174,2113,0512
2167,2047,2688,2143,0537
1948,2023,2364,2059,0561
1980,2067,1563,1955,0586
2245,2110,1718,1992,0610
2064,2088,1833,2080,0635
1847,2011,2405,2040,0660
2060,1976,2143,2067,0685
2047,1975,1852,1947,0709
1792,2012,1811,2020,0734
2019,2024,2185,2028,0759
2136,2023,2085,2015,0784
1843,2035,2163,2001,0808
2011,1998,2248,2137,0833
2257,2041,1927,1983,0857
2071,2141,2155,2086,0881
1954,2071,1923,2049,0905
2241,2068,1693,1999,0928
2070,2005,1886,2028,0951
1913,2054,1774,2063,0975
2176,2103,2404,2271,0997
2144,2120,1993,2025,1020
1945,2115,2023,1957,1043
2098,2040,2137,1997,1065
2194,2043,2567,2094,1088
1926,2038,2069,1956,1110
2017,2053,1888,2003,1131
2243,2032,2056,2102,1152
1989,1950,1881,1964,1173
1944,2146,2099,2111,1193
2256,2086,2211,2205,1212
2106,2110,2108,2121,1231
1932,2080,2295,2204,1249
2179,2055,1671,1888,1267
2181,1991,1577,1863,1284
1896,2074,2036,2019,1300
2057,2040,2130,2090,1316
2210,2103,2113,2135,1330
1929,2116,2113,2120,1345
1897,2014,1920,1973,1358
2224,2065,1975,2036,1371
1925,1983,1974,1979,1383
1885,2001,2031,2031,1394
2227,2055,2073,2062,1404
2096,2034,2032,2064,1412
1818,2015,2030,2015,1420
2141,2008,1990,1984,1426
2203,2082,2090,2067,1431
1848,2010,1995,1979,1434
2164,2172,2197,2154,1436
2233,2066,2073,2141,1437
2022,2180,2198,2247,1437
1987,2085,2066,2146,1436
2239,2056,1957,2027,1435
1968,2023,2021,2037,1432
1826,2053,2111,2115,1429
2160,1987,1829,1900,1424
2174,2048,2056,2052,1418
1847,2084,2192,2136,1411
2183,2097,2331,2169,1403
2283,2090,2222,2121,1394
1907,2047,1971,1996,1384
1979,2044,1976,2037,1373
2135,2019,2008,2014,1362
1833,2014,1969,1978,1349
1765,2015,1949,1990,1336
2075,2033,2002,2044,1321
2038,2049,2037,2057,1306
1818,2055,2033,2045,1289
2169,2078,1987,2045,1271
2208,2081,2071,2071,1252
1897,2048,1923,2027,1232
2066,2067,1953,2019,1211
2223,2050,2212,2141,1190
1951,2092,2235,2127,1167
1931,2053,2302,2148,1144
2213,2060,2103,2072,1120
1962,2012,1960,1979,1095
1904,2043,2000,2009,1070
2262,2072,1974,2022,1044
2144,2064,1887,2027,1018
1871,2057,1733,1999,0991
2193,2084,1945,2035,0963
2200,2084,2140,2094,0935
1972,2057,2237,2112,0906
2074,2039,2008,2029,0877
2232,2040,1942,1994,0848
1991,2058,2228,2111,0820
2111,2117,2461,2155,0791
2294,2095,2351,2201,0764
2073,2115,2045,2111,0738
1837,1990,1892,1995,0712
2145,1974,1855,1932,0688
2053,2045,1875,1995,0664
1860,2036,1881,2001,0642
2126,2072,2015,2026,0620
2197,2061,2049,2002,0598
1929,2081,2084,2063,0576
2043,2082,1963,2057,0554
2232,2061,2008,2077,0532
1931,2048,1884,2006,0510
2009,2112,1886,2052,0488
2198,2050,1840,2001,0466
2029,2053,2140,2083,0444
1875,2024,2377,2071,0423
2148,2050,2303,2063,0402
2099,2081,2009,2057,0382
1903,2101,1987,2079,0363
2083,2088,1944,2079,0345
2218,2074,2095,2091,0328
1969,2083,2127,2100,0312
2021,2065,2039,2033,0297
2200,2049,2012,2036,0283
1964,2046,2039,2033,0271
1904,2019,2096,2040,0260
2181,2031,1979,2056,0250
2073,2031,1800,1995,0241
1886,2049,1749,2036,0234
2099,2019,1919,2056,0227
2160,2049,2097,2057,0222
1902,2044,1879,2054,0218
2121,2088,1995,2028,0215
2229,2082,1675,2059,0213
1944,2051,2219,2135,0212
1945,2035,2337,2144,0212
2167,2050,2466,2068,0213
1989,2098,2327,2077,0214
1862,2054,2198,2031,0216
2173,2063,2247,2101,0220
2165,2032,2397,2105,0225
1931,2112,1818,2000,0232
2152,2162,1703,2051,0241
2307,2159,1865,2135,0252
1905,2078,2107,2040,0264
2103,2082,1815,1996,0277
2310,2028,1656,1955,0291
1953,2043,1683,2048,0306
1931,2005,2352,2216,0322
2202,2056,2757,2220,0339
2076,2129,2546,2085,0358
1929,2132,2104,2018,0377
2221,2067,2263,2097,0399
2078,2007,2621,2233,0421
1853,2082,2193,2170,0446
2039,2122,1889,1984,0471
2151,2111,1456,1902,0497
1875,2020,1362,1918,0524
2076,2039,1907,2110,0551
2287,2116,2520,2197,0578
1960,2017,2591,2057,0605
1937,1941,2020,1870,0632
2104,1953,1384,1839,0660
1960,1973,1662,2029,0687
1871,2119,2308,2103,0715
2130,2031,1994,2024,0742
2150,2087,1833,2026,0769
1855,1989,1728,1931,0797
2109,2078,2341,2135,0823
2109,1929,1932,2011,0850
1917,1987,1888,1909,0876
2079,2113,2413,2296,0901
2261,2110,2701,2246,0927
2033,2169,2464,2140,0951
1884,1994,1604,1823,0976
2207,2000,1124,1681,1000
2062,2081,1822,1947,1024
1823,1987,2460,2239,1048
2165,2129,2259,2155,1070
2209,2070,1635,1917,1092
1899,2038,1723,1947,1113
2046,1980,2276,2171,1133
2195,2078,2183,2102,1153
1890,2024,1919,1969,1172
2019,2071,1546,1804,1190
2239,2033,1980,2060,1207
1984,2005,2228,2136,1223
1883,2126,2218,2143,1239
2172,2024,2005,2011,1254
2077,2123,1899,1981,1269
1901,2055,2025,2047,1283
2155,2034,2087,2063,1296
2200,2102,1995,1979,1309
1930,2063,2069,1982,1321
2139,2181,2191,2154,1332
2072,1853,1879,1876,1343
1862,2029,2053,2035,1353
1935,2061,2060,2008,1361
2199,2059,2053,2004,1369
2232,2249,2227,2313,1374
1969,2139,2106,2267,1379
2338,2208,2083,2320,1381
2112,2085,1931,2153,1382
1854,2064,1975,2081,1382
2175,2123,2177,2089,1381
2213,2072,2383,2162,1379
1797,2037,2210,2028,1376
1923,2002,2075,2011,1372
2161,2037,1956,1975,1367
1817,2010,1969,1959,1360
1907,2035,2039,2026,1351
2204,2038,2004,2018,1341
2063,2079,2064,2078,1330
1941,2060,2057,2077,1318
2160,2031,1957,2034,1304
2109,2039,2008,2034,1289
1829,2006,1958,2002,1273
2144,2035,1862,1997,1256
2176,2059,2032,2085,1238
1907,2077,2235,2139,1219
1953,2029,2229,2069,1199
2184,2024,1997,1972,1178
1896,2011,1920,1993,1156
1891,2045,2050,2110,1133
2184,2061,2145,2114,1109
2037,2061,2112,2069,1084
1928,2072,1990,2000,1058
2139,2064,2098,2065,1031
2166,2043,2013,2040,1004
1920,2032,1797,1980,0977
2121,2062,1900,2033,0948
2283,2107,2126,2114,0919
2035,2080,2035,2054,0889
2054,2059,1984,2031,0859
2303,2085,2032,2060,0828
2061,2092,2157,2079,0796
1934,2059,2149,2070,0765
2175,2020,2090,2087,0735
2123,2022,2189,2094,0705
1819,2050,2311,2131,0676
2133,2024,2051,1991,0648
2177,2043,1750,1967,0620
1807,2026,1773,1977,0594
2081,2052,2138,2063,0569
2242,2051,2221,2047,0545
2034,2103,2125,2037,0521
2023,2103,1967,2044,0499
2232,2086,1958,2084,0477
2059,2107,2112,2127,0456
1982,2134,2136,2149,0435
2230,2135,1918,2078,0415
2155,2120,1712,2054,0395
1841,2047,1927,2056,0375
2037,1996,2107,2029,0356
2057,1941,2269,1967,0338
1827,1974,1979,1934,0321
2016,2048,1800,1942,0304
2228,2089,1786,2041,0289
1944,2095,2096,2137,0276
1967,2075,2459,2183,0265
2217,2072,2451,2116,0255
2061,2076,2367,2086,0247
1911,2041,2014,2005,0241
2144,2029,1971,2059,0237
2110,2007,2087,2027,0235
1843,2022,1994,2059,0235
2089,2051,1506,1946,0235
2173,2050,1117,1891,0236
1931,2077,1889,2033,0238
2007,2052,2706,2233,0241
2233,2084,2912,2178,0245
1996,2094,2231,2111,0251
1927,2071,1741,1996,0259
2165,2063,1800,2062,0268
2065,2055,1924,2095,0280
1899,2011,2176,2095,0293
2232,2063,2019,2026,0307
2183,2060,2222,2033,0323
1898,2101,1974,2031,0339
2098,2089,2277,2154,0357
2153,2046,2340,2166,0376
1962,2076,2373,2102,0395
2072,2111,1896,2043,0416
2220,2107,1662,2005,0437
2033,2119,2061,2002,0459
1982,2071,2305,2156,0481
2211,2042,2231,2134,0505
2109,2087,2103,2148,0529
1875,2042,1928,1968,0553
2084,2040,1946,2023,0577
2183,2043,2091,2043,0602
1890,2021,1809,1958,0628
1984,2049,1961,1929,0654
2244,2045,2039,2061,0680
1873,2023,1793,1932,0707
1967,2123,1717,2115,0734
2207,2081,2159,2131,0761
2023,2067,1259,1803,0789
1875,1991,1742,2141,0816
1999,1890,2622,2067,0844
2063,2041,2986,2341,0872
1768,2103,3134,2234,0900
2071,1985,2820,2027,0928
2206,2036,2836,2067,0957
1935,2110,2677,2086,0986
2040,2150,1531,1919,1014
2312,2142,1057,1907,1042
1992,1997,1405,1928,1069
1904,1916,1485,1876,1095
2279,1940,1234,1866,1120
2049,1963,1235,1809,1143
1908,2141,2080,2058,1165
2225,2060,2103,2164,1186
2164,1973,2179,2213,1206
1922,2171,2394,2231,1225
2095,2133,2314,2063,1244
2317,2143,2337,2125,1262
1975,2042,1990,2042,1279
2041,2157,1897,2047,1297
2203,2116,2189,2086,1313
1985,2132,2104,2059,1330
1866,1941,1864,1969,1345
2179,1996,1946,2007,1361
1962,1924,1926,1922,1375
1763,1932,1883,1914,1389
2107,2040,1998,2024,1401
2053,2003,2012,1979,1411
1994,2175,2217,2251,1420
2066,2008,2032,2068,1428
2210,2105,2088,2107,1434
1992,2132,2121,2145,1438
1930,1890,1952,1947,1440
2314,2183,2139,2186,1441
1998,2117,2075,2147,1441
1957,2134,1931,2103,1440
2181,2082,2120,2110,1438
2002,2014,2069,2001,1435
1842,2082,2111,2037,1431
2069,1966,2055,1963,1426
2238,2067,2171,2107,1420
1973,2073,2171,2068,1412
2195,2163,2174,2149,1403
2380,2139,2072,2142,1393
2005,2075,2039,2064,1382
1965,2077,2047,2064,1370
2105,2030,1968,2018,1356
1919,2021,1955,2022,1342
1753,2003,1997,2008,1326
1987,1944,1915,1954,1309
2011,2003,2021,2004,1291
1809,2070,2051,2051,1272
2158,2033,1832,1952,1251
2163,2061,1847,2013,1229
1851,2070,2237,2189,1206
1963,2062,2336,2134,1182
2187,2069,2199,2069,1157
1961,2030,1964,1946,1131
2088,2088,2169,2153,1105
2271,2079,2166,2158,1078
2152,2104,1915,2075,1051
1928,2025,1892,1951,1023
2085,2026,2096,2021,0994
2189,2064,2290,2097,0965
1897,2007,2032,2018,0935
2146,2087,1838,2007,0904
2250,2050,1939,2031,0873
1893,2035,1732,1956,0843
2055,2005,1697,1987,0812
2325,2097,2022,2075,0782
2022,2076,2325,2080,0753
1900,2036,2458,2091,0723
2244,2060,2197,2119,0694
2050,2057,2104,2099,0665
1901,2052,2175,2127,0637
2219,2039,2166,2057,0609
2144,2036,2006,2032,0582
1928,2062,1934,2009,0556
2031,2003,1882,1930,0531
2252,2101,1999,2074,0506
1949,2086,1813,2038,0481
2013,2105,1886,2090,0457
2253,2071,2061,2072,0434
1994,2086,2135,2069,0411
1877,2068,2041,2060,0389
2177,2049,1863,2031,0368
2086,2051,2071,2084,0348
1865,2059,2286,2099,0329
2131,2105,2179,2088,0311
2227,2128,1998,2040,0295
1927,2103,1999,2069,0279
2039,2068,2181,2094,0265
2243,2050,2299,2120,0252
1947,2049,2071,2044,0240
2021,2078,1812,2015,0230
2217,2080,1820,2080,0221
2004,1996,1891,2000,0214
1871,1974,1951,1968,0208
2063,1910,1623,1823,0204
2015,1956,1785,1914,0201
1796,1979,2119,2097,0200
2090,2015,2253,2109,0200
2187,2023,2119,2083,0201
1920,2072,1962,2043,0201
2060,2077,2155,2046,0203
2208,2085,2056,2077,0206
1992,2087,1964,2026,0211
1983,2066,1857,2024,0217
2207,2079,2085,2155,0226
1984,2044,2259,2113,0236
1889,2091,2360,2118,0248
2233,2152,2278,2122,0261
2115,2071,2356,2049,0277
1949,2050,1918,2003,0293
2178,2088,2042,2046,0311
2243,2112,1877,2091,0330
2000,2167,2021,2056,0350
2064,2160,2194,2145,0371
2273,2068,2074,2032,0394
2000,2087,2307,2112,0418
2097,2136,1738,2077,0443
2282,2039,1807,2095,0468
2045,2011,1748,2143,0495
1841,1951,2935,2109,0522
2056,1947,2712,2091,0550
2081,2042,2268,1960,0578
1900,2108,1993,2027,0607
2105,2118,1719,1991,0637
2169,2139,1443,1886,0666
1835,1970,1287,1835,0695
1947,2064,0942,1842,0724
2101,1878,1934,2115,0753
2016,2112,2200,2179,0780
1856,1960,2802,2177,0808
2173,2127,2447,2116,0835
2093,2111,2256,2095,0862
1794,2052,2462,2119,0888
2189,1970,2253,1969,0915
2155,2109,2226,2090,0941
1919,2020,1634,1939,0967
2138,2037,1536,1962,0992
2274,2168,2182,2232,1016
1968,2090,2328,2220,1040
2019,2067,2011,2028,1064
2240,2037,1735,1917,1086
1987,2009,1757,1937,1108
1935,2031,2043,2094,1129
2253,2064,2114,2053,1149
2119,1979,1823,1931,1169
1879,2057,1830,1970,1187
2068,1983,1924,1979,1205
2209,2071,1995,2030,1221
1945,1996,1995,2046,1237
1998,2093,2005,2013,1253
2300,2052,2121,2114,1268
2033,2195,2113,2116,1282
1933,2075,2056,2057,1295
2301,2199,2133,2082,1308
2029,2026,2030,2009,1321
1927,2082,2161,2110,1332
2154,2104,2165,2137,1343
2007,1973,1969,1955,1353
1929,2164,2165,2188,1362
2130,2097,2094,2196,1369
2328,2176,2163,2208,1375
1946,2073,2063,2138,1379
1971,2036,1991,2040,1381
2250,2056,2032,2073,1381
2025,1996,1975,2014,1381
2005,2056,2145,2110,1380
2247,2019,2209,2099,1378
2109,2100,2145,2050,1375
1941,2090,2115,2092,1371
2120,2112,2046,2065,1366
2063,2038,2010,2026,1360
1849,1976,1983,1951,1352
2003,2012,1986,1977,1343
2197,2098,2081,2144,1332
1824,2006,1984,2034,1321
1852,2005,1993,2036,1308
2057,2021,1970,2008,1294
1918,2035,1994,2020,1279
1931,2033,1998,2037,1263
2243,2066,2045,2064,1245
2094,2059,2015,2048,1227
1894,2071,2047,2065,1207
2134,2070,2113,2051,1187
2155,2070,2130,2061,1165
1828,2030,1965,1995,1143
2005,2039,2008,2021,1119
2186,2046,2087,2061,1095
1880,2047,2251,2122,1069
2013,2048,2135,2041,1043
2249,2041,2034,2039,1015
2068,2052,1954,2000,0987
1912,2055,1904,2007,0959
2202,2070,1968,2072,0930
2157,2053,1983,2057,0900
2029,2085,2108,2098,0870
2279,2153,2140,2130,0839
2301,2117,2156,2107,0808
1946,2066,2071,2072,0777
2028,2027,1986,1999,0745
2225,2021,1937,2004,0715
1952,2027,1938,2003,0684
1946,2019,1901,1996,0653
2184,2010,1931,2009,0622
2059,2024,2107,2053,0592
1827,2015,2298,2082,0561
2168,2030,2368,2103,0531
2099,2019,2074,1991,0502
1809,2007,1939,1992,0473
2074,2033,1969,1999,0444
2248,2053,1978,2007,0417
1967,2110,1983,2049,0390
2078,2093,1969,2064,0364
2258,2087,1877,2067,0338
1975,2081,1969,2080,0313
1911,2060,2049,2075,0288
2195,2051,2147,2066,0265
2059,2077,1938,2024,0242
1905,2140,1995,2135,0220
2155,2088,2024,2082,0200
2141,2069,2177,2103,0181
1845,2043,2213,2069,0164
2114,2083,1975,2029,0149
2272,2109,1824,2040,0136
2008,2110,1872,2096,0124
2007,2126,2342,2202,0115
2296,2134,2477,2181,0108
2042,2067,2225,2028,0102
1945,2066,1825,1985,0099
2254,2007,1777,1964,0098
2055,2026,2042,2073,0099
1828,1990,1957,1994,0100
1994,1947,1778,1966,0101
2096,1996,1817,1979,0104
1852,2018,1765,2027,0109
2079,2066,1997,2049,0114
2265,2130,2049,2097,0122
1970,2084,2070,2071,0131
1980,2063,2506,2137,0141
2152,1991,2366,2078,0152
1994,1997,2439,2062,0165
1817,1987,2411,2037,0178
2130,2079,1812,2046,0193
2140,2112,1825,1977,0209
1873,2120,1894,2057,0225
2171,2014,2543,2064,0243
2191,1988,2342,2056,0261
1933,2031,1775,1984,0280
2020,2063,1670,2030,0300
2227,2122,1871,2077,0321
2013,2134,2009,2096,0343
2068,2118,1957,2090,0366
2257,2106,1757,1958,0390
2005,2048,1920,2048,0415
1915,1975,1979,2064,0442
2078,2042,2335,2026,0469
2065,2046,2958,2259,0497
1800,1947,2893,2093,0526
1977,2064,2512,2092,0555
2163,2190,1431,1985,0584
1815,2089,1653,1923,0614
1971,2037,2216,2146,0645
2245,2069,2221,2068,0675
2078,2143,1386,1947,0705
1998,2097,1125,1833,0734
2272,2033,1689,2044,0764
2071,2057,2685,2246,0792
1962,2158,2497,2272,0820
2237,2117,2007,2035,0847
2216,2103,1975,1997,0874
1903,2034,2309,2137,0900
2043,2035,2419,2141,0926
2348,2090,1671,1983,0951
1972,2153,1853,2147,0976
2040,2148,2392,2144,1000
2344,2144,2795,2389,1024
1957,2005,2209,2017,1047
1922,1996,1699,1902,1069
2241,1983,1520,1854,1091
2064,1999,1688,1870,1112
1801,1988,1809,1945,1132
2110,1923,1845,1928,1152
2128,2011,1937,2022,1170
1788,1925,1871,1926,1188
2037,1995,1891,1981,1204
2276,2019,1999,2046,1220
1944,2108,2019,2029,1236
1951,2113,2016,2037,1250
2250,2095,2042,2049,1264
2003,2030,2070,2064,1278
1799,1964,1980,1939,1291
2222,2103,2139,2049,1303
2176,2170,2182,2187,1315
1866,2141,2156,2219,1326
2111,2105,2047,2071,1336
2251,1933,1999,1968,1346
1984,2095,2166,2091,1354
2098,2091,2095,2073,1361
2183,1998,1959,1939,1367
2015,2153,2181,2243,1371
1960,2204,2187,2248,1374
2311,2228,2229,2320,1376
2128,2177,2138,2200,1376
1849,2012,2029,2027,1375
2052,2027,2000,1992,1374
2098,2040,2007,1998,1372
1711,1905,1909,1850,1369
2031,1982,1945,1954,1365
2139,1960,1951,1968,1360
1875,1993,2006,2027,1354
1993,2016,2098,2045,1346
2228,2017,2025,1997,1338
1928,2003,1889,1968,1328
1672,1982,1950,1978,1318
2121,2048,2160,2062,1307
1910,2017,2176,2055,1294
1829,2045,2135,2075,1281
2183,2037,1949,2023,1267
2216,2062,1995,2071,1253
1896,2063,2025,2067,1237
2135,2060,2011,2058,1220
2278,2062,1999,2045,1202
1905,2046,1937,2002,1183
1960,2070,2000,2050,1163
2303,2081,2131,2102,1141
2068,2108,2163,2126,1119
1970,2106,2057,2086,1096
2298,2107,1967,2056,1072
2112,2057,2099,2045,1047
1881,2067,2201,2079,1021
2179,2072,2041,2055,0995
2117,2047,1883,2015,0968
1929,2057,2040,2054,0940
2070,2024,2127,2093,0912
2254,2026,1744,1971,0883
1995,2061,1813,1982,0854
1989,2066,2107,2032,0825
2217,2043,2520,2138,0796
1993,2011,2405,2109,0767
1895,2009,2111,2067,0739
2206,2056,1981,2021,0712
2170,2101,2001,2060,0686
1962,2071,1908,2025,0662
2276,2196,2021,2142,0639
2221,2110,2039,2078,0616
1981,2149,2163,2137,0595
2003,2044,2013,2016,0573
2206,2060,1997,2047,0552
1845,1949,1805,1938,0531
1878,1968,1764,1926,0510
2069,1934,1918,1891,0489
2031,2084,2267,2099,0468
1958,2119,2370,2150,0448
2255,2142,2245,2118,0428
2137,2129,2077,2113,0408
1965,2222,2128,2175,0389
2193,2164,2093,2151,0370
2273,2162,2056,2143,0352
1934,2082,1903,2042,0334
1991,2021,1679,1985,0317
2115,1968,1707,1985,0301
1981,1975,2157,2026,0285
1902,1999,2410,2055,0271
2188,2021,2335,2029,0257
2046,2016,1744,1953,0245
1881,2073,1464,1986,0233
2155,2054,1717,2053,0223
2159,2048,2285,2144,0215
1917,2019,2471,2074,0207
2045,2010,2337,2011,0201
2164,2043,2137,2013,0195
1912,2039,2092,2040,0191
1952,2032,2173,2115,0189
2198,2024,1880,2029,0187
1979,2063,1525,2029,0187
1910,2144,1609,2000,0188
2175,2076,1796,1958,0189
2147,2005,1983,1987,0190
1927,1970,2215,2080,0193
2120,2018,2271,2181,0198
2141,2068,2330,2117,0204
1878,2075,2044,2025,0212
2061,2084,1865,2037,0221
2234,2086,2679,2174,0231
1992,2031,2586,2102,0243
2002,2123,2451,2071,0256
2221,2157,1687,2066,0271
2005,2161,1552,2033,0286
1973,2069,1834,2036,0302
2140,2037,1728,2006,0319
2134,2052,1470,1958,0336
1949,2048,1869,2014,0355
2149,2029,2186,2051,0374
2263,2097,1975,2013,0394
1910,2128,2533,2207,0415
2113,2084,2626,2256,0436
2243,2111,2756,2267,0459
2097,2153,2223,2147,0483
2081,2146,1627,2028,0507
2324,2040,1411,1921,0532
2070,1989,2276,2093,0557
1830,2040,2624,2120,0583
2029,2107,1912,2015,0608
2012,2137,1493,1930,0634
1719,2031,1687,1937,0660
1922,1928,2576,2106,0686
2093,1938,2843,2156,0713
1828,1961,1557,1864,0739
1941,1989,1514,1819,0766
2203,2032,1878,2019,0792
1959,2039,2362,2105,0818
1755,2076,2314,2152,0844
2062,2075,1937,2035,0869
1920,2128,1618,1944,0894
1779,1943,1189,1812,0918
2156,2023,1763,1913,0942
2191,1975,2483,2238,0965
1995,2189,2843,2326,0988
2241,2071,2125,2044,1010
2400,2131,1536,1849,1032
2045,2069,2029,2090,1053
2101,2151,2575,2355,1074
2376,2130,2521,2259,1095
2070,2078,2101,2076,1115
1987,2131,1864,1994,1135
2252,2071,1747,1911,1154
2066,2001,1750,1921,1173
1843,1963,1773,1915,1190
2113,2017,1839,1945,1207
2119,1923,1871,1935,1223
1864,1983,1948,1970,1239
2016,1850,1935,1895,1253
2125,2009,1951,1917,1267
1945,2047,2021,2051,1281
1997,2235,2047,2126,1293
2238,2143,2078,2157,1305
2008,2052,2065,2116,1316
1911,2150,2093,2120,1326
2273,2209,2222,2230,1335
2012,1992,2047,1987,1343
1912,2141,2150,2164,1349
2181,2155,2184,2229,1353
2246,2145,2126,2200,1356
1892,2085,2103,2122,1358
2014,2015,2027,2004,1358
2164,1976,1979,1974,1357
1864,1985,1919,1931,1356
1903,2007,2031,1994,1354
2275,2063,2142,2083,1351
2099,2097,2189,2120,1346
1941,2094,2095,2065,1340
2242,2027,1969,1989,1333
2089,2037,2046,2055,1324
1969,2019,2086,2062,1314
2060,1975,1981,1980,1303
2223,2009,1962,1994,1291
1862,2027,2021,2028,1277
1984,2066,2104,2107,1263
2186,2047,2042,2050,1248
1919,2029,2007,2048,1232
1902,2068,2047,2069,1215
2174,2064,2048,2055,1197
2035,2056,1989,2027,1178
1812,2031,1823,1953,1159
2072,2036,1955,2025,1138
2064,2065,2108,2091,1116
1824,2089,2184,2125,1093
2016,2070,2183,2116,1069
2207,2071,2215,2133,1044
1985,2105,2249,2129,1019
2061,2120,2210,2126,0994
2317,2091,1992,2037,0968
1988,2018,1908,1988,0942
1935,2039,1994,2025,0917
2251,2052,2050,2045,0890
2189,2084,2040,2074,0864
2043,2135,1872,2079,0837
2186,2063,1781,1999,0810
2202,2050,1899,2031,0782
1837,2024,2064,2030,0754
2048,2027,2185,2027,0726
2223,2018,2267,2086,0698
1944,2054,2251,2088,0670
1947,2014,1921,2014,0642
2158,2014,1825,1959,0615
1962,1987,1970,1961,0589
1852,1983,2322,2067,0564
2200,2089,2347,2117,0539
2132,2067,2069,2066,0516
1930,2092,1897,2002,0493
2083,2059,1952,2035,0471
2201,2070,2000,2057,0450
1926,2047,1819,2016,0430
2033,2066,1817,2023,0410
2240,2068,1765,2031,0390
1972,2049,1843,2029,0372
2010,2116,2237,2141,0354
2287,2143,2263,2139,0337
2198,2152,2373,2140,0321
1966,2104,2009,2039,0306
2265,2125,1743,2038,0292
2181,2098,1787,2097,0280
1910,2100,2275,2194,0269
2088,2046,2603,2167,0259
2054,1984,2477,2029,0251
1744,2015,2043,1964,0245
2051,2038,1939,1970,0241
2183,1992,1707,1975,0237
1994,2001,1728,1930,0236
1959,1919,1728,1965,0236
2050,1950,1954,2037,0237
1999,2029,2116,2055,0238
1939,2097,2080,2013,0241
2159,2136,1863,2013,0245
2165,2114,1922,2051,0250
1950,2070,1919,2136,0258
2087,2093,2357,2129,0267
2199,2005,2477,2114,0278
1999,2077,2481,2128,0290
2015,2066,2011,2052,0303
2235,2114,1889,2041,0317
1993,2028,2144,2056,0332
1903,2027,2021,2025,0347
2171,2145,2058,2107,0364
2164,2191,1725,2163,0382
1916,2169,2231,2151,0400
2150,2100,2627,2235,0420
2239,2069,2600,2132,0442
1910,2096,1984,1964,0464
2082,2128,1643,2028,0487
2222,2098,1905,2117,0511
1949,2023,2144,2161,0536
2010,2135,2046,2102,0561
2258,2166,1939,2043,0586
2012,2111,2243,2116,0612
1838,1983,2325,2020,0638
2087,1947,2135,1859,0664
2015,1942,1508,1779,0690
1821,2023,0739,1762,0715
2107,2056,1614,2063,0741
2157,1958,1846,2161,0766
1861,1879,2494,2010,0790
1931,1846,2412,2030,0815
2165,2024,2326,2049,0839
1949,2152,2469,2136,0864
2064,2082,2243,2136,0889
2293,1980,2268,1990,0913
2101,2059,2195,1952,0938
1833,2022,1855,1935,0963
2153,2121,1557,1993,0988
2095,2015,2205,2215,1013
1819,2035,2603,2227,1037
2068,2056,2309,2124,1061
2201,2158,1659,1882,1085
1963,2129,1499,1913,1108
2033,1983,1927,2077,1130
2311,2169,1999,2067,1152
2011,1999,1624,1870,1173
1969,2100,1829,1984,1192
2231,2017,2295,2219,1211
2025,2040,2229,2146,1229
1853,2066,2073,2073,1246
2190,2136,1902,1999,1263
2158,2092,1983,2035,1279
1878,1957,2023,2027,1295
2130,2113,2010,2042,1310
2264,2086,2053,2083,1325
1901,2139,2100,2104,1339
1953,1983,1990,1957,1352
2243,1995,2016,1943,1365
2099,2112,2203,2173,1377
1967,2103,2125,2096,1387
2269,2020,2061,1982,1396
2054,2001,1971,2009,1403
1930,2206,2192,2245,1408
2201,2093,2094,2233,1411
2368,2125,2155,2230,1413
1934,2125,2106,2110,1413
2057,2092,2073,2113,1413
2291,2131,2054,2097,1412
1897,1973,1973,1977,1410
1944,2105,2159,2110,1407
2207,2087,2127,2099,1402
1960,2039,2092,2041,1397
1783,1980,1989,1964,1390
2040,1992,2011,2001,1382
2089,2047,1991,2027,1373
1825,1999,1922,1975,1363
2059,1993,2017,2008,1351
2247,2042,2103,2037,1339
1831,2019,2104,2051,1325
1950,2101,2084,2096,1310
2081,2104,2047,2107,1295
1856,2112,2129,2151,1278
1792,2073,2061,2076,1260
2226,2066,1992,2023,1240
2014,2031,1988,2013,1220
1792,1961,1894,1939,1198
2196,2046,1765,1940,1176
2175,2068,2033,2075,1152
1879,2057,2352,2176,1128
2037,2047,2345,2144,1102
2206,2098,2162,2099,1076
1851,2037,1994,2028,1050
2017,2068,1993,2056,1023
2359,2074,2131,2089,0996
2111,2082,1956,2039,0969
1995,2029,1938,1988,0941
2337,2030,2073,2053,0913
2133,2065,1805,2007,0884
1935,2083,1690,1985,0855
2253,2059,2055,2061,0827
2183,2013,2461,2145,0798
1891,2047,2429,2094,0770
2049,2016,1996,2002,0742
2248,2055,1790,1993,0714
1964,2097,2070,2124,0687
2035,2099,2153,2083,0660
2281,2085,2128,2063,0633
2004,2039,2015,2013,0607
1906,2037,2063,2025,0582
2237,2077,2024,2063,0557
2107,2076,2047,2055,0533
1890,2080,1923,2038,0509
2175,2081,1902,2039,0485
2121,2076,1848,2031,0461
1873,2088,1999,2082,0438
1998,2030,2146,2079,0415
2162,1979,2041,1980,0393
1896,2016,1997,1992,0371
1947,2061,1753,2031,0350
2291,2169,2170,2189,0331
2076,2132,2267,2157,0312
1963,2127,2416,2145,0294
2233,2091,2214,2068,0278
2111,2063,2009,2117,0263
1827,2048,2138,2058,0249
2071,2037,1945,1987,0237
2119,1956,1638,1884,0227
1827,1982,1593,1925,0219
1974,1966,1960,1978,0212
2183,1997,2216,2019,0207
1962,1998,2227,1993,0203
1919,2005,1943,1962,0201
2164,2008,1855,2051,0201
2029,2067,1888,2088,0201
1908,2044,1722,2060,0202
2199,2064,2095,2026,0204
2147,2020,2073,2045,0207
1881,2067,2291,2068,0212
2072,2088,2073,2081,0219
2214,2147,2047,2115,0228
1972,2105,2134,2187,0239
2049,2109,2670,2182,0252
2239,2090,2225,2054,0267
2032,2093,2048,1979,0282
1929,2063,1688,2003,0299
2234,2063,1837,2080,0317
2090,2109,2011,2070,0336
1979,2132,1886,2061,0356
2212,2161,2326,2098,0377
2242,2161,2306,2149,0399
1924,2066,2368,2153,0421
2102,2050,2021,2096,0445
2207,2061,1777,2023,0470
1896,2071,1813,1998,0496
2037,2054,2024,2031,0522
2218,2022,1835,2025,0549
2035,2023,2305,2091,0577
1955,2179,2160,2223,0604
2068,2011,2315,2158,0631
1973,1991,2162,2042,0658
1788,1929,2182,1956,0687
2038,1986,1695,1823,0715
2082,2028,1840,1882,0744
1815,2035,1645,1881,0773
2013,2025,2103,2125,0801
2183,2072,2634,2202,0830
1912,1935,1880,2009,0858
1977,2103,2073,2028,0885
2257,2102,1612,1892,0912
2064,2043,2248,2065,0939
1898,2054,2409,2200,0965
2296,2211,2429,2163,0991
2136,2184,1973,2117,1016
1937,2124,1671,1975,1041
2167,1985,2363,2111,1066
2247,2089,2174,2112,1090
1880,2038,1990,2013,1114
2072,2033,1774,1950,1137
2237,2032,1876,2019,1159
1920,1993,1917,1968,1180
1970,1990,1963,2027,1201
2318,2086,1993,2067,1220
2069,2093,2047,2086,1239
1917,2147,1957,2038,1257
2193,2025,1954,2032,1274
2046,1934,1951,1973,1290
1871,2089,2032,2051,1306
2016,2015,1985,1989,1321
2063,2020,1957,1935,1335
1886,2029,2122,2143,1348
2127,2294,2253,2307,1361
2326,2202,2176,2181,1372
2082,2130,2103,2036,1382
1913,1995,2024,1972,1391
2188,2039,2055,2061,1397
2206,2240,2200,2331,1402
1943,2088,2072,2184,1406
2262,2127,2048,2122,1407
2183,2071,2096,2114,1407
1868,2103,2139,2088,1407
2095,2065,2125,2067,1405
2171,1984,1971,1960,1403
1781,1902,1891,1877,1400
1976,2034,2039,2039,1396
2177,2012,1975,1989,1391
1898,2033,2004,2025,1384
1984,2017,1986,2012,1377
2176,1972,1964,1983,1368
2238,2041,2077,2061,1358
1946,2004,2045,2010,1346
2036,1975,1999,1965,1334
2045,2053,2054,2062,1321
1572,2020,1935,2001,1307
1799,2039,2039,2053,1291
2110,2090,2087,2088,1275
1906,2056,1960,2012,1258
2002,2078,2005,2074,1239
2232,2036,2037,2083,1220
2000,2042,2113,2081,1200
1896,2005,1858,1958,1179
2259,2133,2125,2128,1156
2086,2109,2364,2248,1133
2006,2142,2349,2169,1110
2189,2108,2210,2102,1086
2192,2033,1959,1989,1061
1900,2043,2013,2025,1036
2004,2032,1981,2011,1010
2220,2015,1809,1986,0984
2039,2053,1797,1989,0957
1991,2010,1838,1992,0930
2218,2058,1867,1955,0902
2125,2019,2267,2103,0874
2006,2122,2344,2158,0845
2266,2102,2251,2110,0817
2219,2087,2134,2077,0789
1919,2005,1974,1988,0761
2104,2025,2038,2027,0734
2195,2090,2138,2097,0707
1959,2099,2061,2095,0680
1983,2056,1936,2085,0654
2223,2061,1815,2039,0628
1956,2025,1695,1957,0603
1885,2030,1851,1985,0578
2145,2039,2107,2027,0553
2068,2053,2321,2076,0528
1892,2043,2287,2034,0504
2160,2078,2310,2117,0481
2180,2083,2139,2088,0459
1911,2088,1999,2049,0438
2027,2075,1888,2029,0419
2179,2060,1915,2009,0401
1923,2064,2033,2063,0385
1981,2051,2169,2089,0370
2186,2001,1847,1968,0357
1981,2036,1584,1949,0345
1896,2094,1728,1987,0334
2129,2085,2133,2107,0325
2184,2085,2560,2213,0317
1901,2041,2384,2173,0311
2168,2018,2062,2046,0308
2156,2052,1939,2047,0306
1867,2026,1989,2017,0305
1991,2029,1984,1974,0306
2196,2015,1891,1977,0307
1927,2089,1759,1996,0310
1994,2036,2092,2099,0314
2217,2071,2417,2195,0319
1971,2073,1975,2128,0327
1952,2072,1928,2014,0336
2197,2061,1781,2013,0347
2211,2123,2502,2108,0359
2043,2260,2238,2133,0372
2219,2273,1913,2112,0385
2269,2112,2155,2263,0400
1950,1966,2225,2119,0415
1999,1979,1914,2023,0431
2126,1991,1872,1888,0448
1883,2046,1876,1990,0466
1978,2064,2361,2144,0485
2211,2074,2301,2088,0505
2104,2085,2034,2073,0527
1937,2073,1949,1964,0549
2254,2145,2296,2165,0573
2096,2065,1960,1995,0596
1832,2021,1813,1953,0621
1988,2046,2089,2131,0645
2078,2016,2383,2217,0670
1906,2095,1425,1980,0695
2021,2053,1044,1725,0721
2154,2000,0935,1810,0746
1869,1913,2552,2021,0772
1864,1944,3011,2291,0797
2129,2035,2901,2185,0823
2104,2131,1672,1997,0848
1935,2163,2035,1997,0873
2122,2106,2285,2115,0899
2174,2110,2152,2219,0924
1810,1984,2191,2056,0949
2097,2023,1705,1975,0975
2205,2037,1977,1904,1000
2048,2154,2518,2196,1025
2047,2058,2152,2057,1049
2257,2036,1677,1967,1073
1960,1944,1550,1846,1097
1936,2077,1762,1945,1119
2183,2002,1903,2036,1141
2114,1959,1815,2048,1162
1915,2034,1831,1975,1182
2133,2073,2177,2133,1202
2198,2137,2305,2147,1220
1916,2056,2062,2064,1238
2048,2068,1879,2007,1255
2205,2087,1973,2035,1272
1939,2041,1994,2025,1288
1991,2073,2008,2036,1303
2231,2085,2077,2079,1318
2074,2153,2152,2121,1332
1657,1743,1824,1781,1346
2392,2337,2331,2290,1358
1915,1926,1918,1867,1370
1935,2185,2185,2165,1381
2103,2097,2037,2047,1390
2109,2004,2021,2083,1397
2027,2152,2129,2225,1403
2124,2154,2189,2207,1406
2271,2173,2123,2152,1408
2017,2097,2085,2107,1408
1910,1953,1960,2004,1408
2211,2050,2065,2101,1406
2015,2020,2013,2011,1404
1831,1927,1971,1943,1401
2085,1978,2034,1999,1397
2154,2056,2089,2056,1391
1874,2079,2071,2058,1385
2193,2090,2107,2095,1377
2254,2075,2074,2073,1368
1967,2058,1995,2047,1358
2037,2049,1989,2025,1346
2275,2047,2157,2109,1334
2062,2064,2159,2084,1320
1900,2043,2021,2014,1305
2185,2079,2010,2066,1290
2010,2049,2091,2081,1273
1744,2056,2149,2105,1256
2112,2046,2043,2053,1237
2091,2035,1963,2004,1218
1778,2011,1982,2011,1197
1935,1981,1896,1959,1176
2162,2057,1944,2014,1154
1853,2023,1963,2023,1131
1922,2055,2000,2052,1107
2174,2043,2100,2082,1082
2001,2059,2179,2075,1056
1880,2072,2134,2085,1030
2267,2054,2010,2032,1003
2100,2100,1997,2025,0976
1955,2051,2155,2067,0948
2229,2074,2266,2171,0920
2231,2112,2046,2080,0892
1956,2058,1969,2056,0864
2119,2060,2010,2027,0836
2264,2033,1949,2018,0808
2039,2077,1829,2001,0780
2063,2079,2063,2076,0752
2284,2063,2180,2095,0725
2087,2097,2068,2061,0697
1880,2063,1839,1981,0670
2160,2000,2043,1998,0643
2024,1949,2295,2037,0617
1813,2004,2189,2041,0590
2086,2044,1926,2008,0565
2175,2087,1974,2062,0539
1907,2079,2085,2091,0515
2027,2097,2089,2051,0490
2283,2082,1921,2053,0466
1951,2053,1908,2037,0443
1993,2126,2038,2116,0420
2281,2113,2067,2090,0398
2062,2104,2219,2066,0378
1985,2119,2115,2098,0358
2208,2102,2106,2098,0339
2120,2068,1987,2052,0322
1901,2059,1979,2072,0305
2072,2038,2071,2059,0290
2193,2104,2050,2106,0276
1907,2055,2096,2044,0263
1999,2056,2084,2080,0252
2223,2088,2214,2105,0241
2017,2066,2116,2127,0233
1953,2048,1795,1988,0225
2178,2017,1585,1961,0220
2024,1991,1827,1972,0215
1841,2023,2386,2125,0213
2025,1984,2377,2043,0212
2170,1995,1969,1971,0212
1851,2018,1645,1965,0213
2034,2005,1798,1966,0215
2102,2025,2275,2120,0217
1947,2037,2129,2031,0221
1968,2057,1935,2108,0227
2267,2064,1563,2031,0234
2022,2122,1881,2077,0243
2027,2100,2271,2100,0253
2163,2093,2671,2071,0264
2092,2023,2727,2068,0277
1928,2085,2017,2065,0290
2125,2059,1609,2049,0305
2248,2076,1931,2061,0321
2036,2134,2554,2162,0338
2162,2237,2019,2204,0357
2304,2137,2300,2118,0376
2006,2101,2477,2262,0397
2028,2045,2363,2086,0420
2219,2123,1876,2067,0443
2064,2113,1634,1989,0468
1912,2025,1663,1927,0494
2166,2007,2124,1967,0521
2046,1997,1805,1891,0549
1827,2033,1964,2024,0577
2087,2009,2451,2191,0604
2161,2042,2284,2061,0632
1791,2004,2157,2012,0659
1911,1968,1664,1973,0687
2141,2026,1762,2008,0714
1906,2067,1523,1913,0742
2002,2071,1494,1850,0770
2176,1995,1737,1908,0797
2016,1996,2407,2143,0823
1827,2026,2898,2287,0848
2105,2063,2495,2144,0874
2177,2105,1761,1992,0899
1951,2047,1461,1871,0924
2151,2084,2256,2127,0948
2250,2063,2474,2173,0972
1997,2085,2289,2193,0996
2015,2079,2163,2181,1019
2263,2112,2069,2119,1042
2002,2006,1738,1921,1064
1909,1971,1630,1844,1086
2203,2029,2055,2085,1107
2055,1964,2049,2057,1128
1871,2181,2073,2064,1148
2205,2128,1867,1973,1167
2206,2147,1869,1974,1185
1963,2093,2031,2083,1203
2159,2086,2036,2063,1220
2242,2083,2032,2057,1237
1909,1984,2047,2047,1253
1950,2029,2036,2039,1268
2189,1963,1976,1986,1282
1937,2081,2053,2043,1296
1726,2002,1965,1937,1309
2027,1886,1897,1826,1320
2309,2343,2379,2241,1332
1823,2014,2051,2052,1342
2231,2111,2144,2167,1351
2222,2045,2047,2128,1358
1935,2069,2089,2071,1365
2148,2265,2213,2314,1369
2267,2099,2058,2159,1373
2075,2125,2125,2206,1374
1955,2063,2079,2085,1374
2222,2150,2112,2120,1373
2061,2040,2032,2060,1372
1897,2021,1987,1986,1369
2161,2020,2007,1995,1364
2138,2033,1956,1991,1359
1929,2019,2039,2043,1351
2150,2097,2183,2112,1342
2122,2021,2106,2037,1332
1857,2064,2021,2039,1320
1931,1997,1875,1960,1306
1966,2015,2062,2069,1292
1804,2057,2091,2031,1276
1747,2031,2128,2063,1259
2200,2054,2093,2062,1241
2164,2048,2027,2057,1221
1893,2021,2035,2049,1200
2220,2056,1983,2027,1178
2137,2034,1935,2012,1155
1877,2003,1908,1989,1131
2009,2004,1909,1964,1105
2134,2026,2098,2048,1078
1843,2040,1985,2056,1051
1985,2057,2037,2078,1022
2260,2098,2067,2129,0992
2089,2138,2097,2104,0962
2005,2125,2080,2075,0931
2319,2141,2199,2169,0900
2200,2040,2289,2131,0868
1906,2027,2368,2125,0837
2234,2008,2069,1989,0804
2150,2030,1797,1955,0772
1877,2072,1779,1937,0740
2114,2076,2031,2053,0709
2276,2064,2150,2093,0679
1987,2040,2073,2052,0650
1933,1987,1879,1981,0622
2221,2004,1712,1937,0596
1941,2007,1904,1976,0571
1870,2043,1898,1992,0546
2219,2041,1915,1991,0523
2106,2085,2084,2050,0499
1901,2105,2264,2130,0476
2160,2098,2309,2124,0454
2154,2037,2150,2023,0432
1872,2063,1927,2010,0410
2093,2121,2064,2080,0389
2255,2116,2133,2117,0369
1935,2068,1945,2077,0350
1934,2091,1841,2027,0332
2220,2092,1973,2083,0316
2043,2119,2174,2132,0301
1904,1995,2169,2061,0287
2217,2071,2023,2066,0275
2139,2086,1848,2056,0266
1914,2100,1843,2041,0258
2161,2049,2168,2112,0251
2151,2057,2478,2096,0247
1900,2071,2398,2094,0244
2014,2015,1992,1983,0244
2176,1994,1605,1943,0244
1920,2016,1561,1955,0245
1890,1992,2101,2038,0247
2102,1981,2433,2121,0250
1968,2002,2289,2029,0256
1914,2027,2017,1982,0263
2144,2139,1699,2047,0272
2157,2093,1762,2093,0282
1869,2007,2142,2172,0294
2138,2027,1981,1952,0307
2228,2109,1963,2010,0322
1953,2056,2024,2143,0337
2030,2066,2074,2135,0353
2158,1963,2484,2208,0370
2110,2126,2671,2169,0389
1989,2214,2815,2233,0409
2251,2194,2091,2079,0431
2075,2106,2234,2011,0455
1899,2094,2052,1997,0480
2153,2113,2086,2054,0506
2190,2118,1895,1978,0534
1928,2030,1330,1858,0563
2022,2015,1708,1958,0592
2123,2009,2316,2206,0621
1917,2003,2538,2151,0649
1959,2077,2386,2144,0678
2163,2112,1739,1919,0708
1978,2075,1201,1869,0737
1863,1988,1356,1905,0766
2132,1980,1839,1898,0794
2082,2007,2467,2059,0822
1845,1993,2141,1976,0849
2231,2031,1505,2130,0876
2237,2170,1733,2070,0902
1916,2042,2445,2174,0927
2003,2042,2912,2153,0952
2373,2139,2768,2309,0977
1943,2148,1850,2019,1001
2017,2029,1543,1823,1025
2245,1859,1717,1863,1048
1924,1979,2274,2099,1071
1813,2058,2202,2116,1093
2225,2111,2079,2152,1115
2097,2000,1831,2012,1136
1808,1951,1813,1959,1157
2112,2040,2016,1985,1176
2175,2047,2010,2021,1195
1887,2021,1887,1993,1214
2001,2037,1895,2014,1231
2301,2131,2027,2097,1248
1962,2089,1916,1988,1264
1970,2059,1983,2041,1279
2255,2045,2035,2046,1294
1988,2036,2000,2013,1308
1893,2064,2059,2071,1322
2148,2056,2049,2039,1334
1956,1953,1963,1924,1347
1833,1995,2086,2004,1358
2104,2156,2164,2094,1368
2116,1959,1985,1936,1378
1966,2133,2118,2046,1386
2209,2264,2228,2342,1393
2412,2321,2345,2435,1399
2204,2273,2195,2333,1403
1965,2002,1971,2059,1405
2165,1987,1993,2024,1406
2023,2039,2016,2064,1406
1810,1902,1901,1907,1405
2134,1952,1979,1895,1403
2073,1977,1987,1933,1401
1934,2113,2156,2134,1397
2134,2097,2114,2101,1393
2362,2197,2214,2182,1387
1954,2022,2035,2035,1379
2011,2000,1986,1998,1371
2415,2080,2071,2106,1361
1930,2015,1956,2023,1349
1834,2036,2017,2040,1337
2125,2072,2079,2109,1323
1906,2050,2067,2051,1308
1605,2048,2042,2014,1292
1865,2014,2039,2025,1275
2002,2077,2075,2071,1257
1867,2079,2081,2057,1238
2170,2124,2121,2109,1218
2388,2083,2088,2105,1197
1972,2070,2075,2081,1174
1919,2003,2001,2018,1151
2249,2034,1969,2003,1126
1955,2011,1997,2006,1101
1793,2010,2033,2019,1074
2162,2019,2006,2017,1047
2089,2011,1890,1985,1018
1859,2021,1858,1975,0989
2185,2046,2029,2069,0958
2255,2089,2262,2135,0928
2035,2175,2413,2262,0897
2263,2201,2191,2210,0865
2331,2099,2008,2075,0834
2050,2042,2075,2047,0803
1923,2019,1972,1983,0773
2294,2036,1949,1985,0743
2108,2055,2047,2017,0713
1877,2026,2123,2004,0684
2130,1979,2046,1984,0655
2076,1972,1771,1926,0626
1839,2018,1745,1973,0598
2078,2030,2093,2056,0570
2193,2025,2182,2051,0543
1879,2012,2010,1982,0517
1997,2048,1979,2013,0491
2181,2081,1878,2046,0465
2060,2099,2109,2117,0440
1894,2075,2193,2102,0417
2201,2055,2134,2033,0393
2042,2103,2083,2058,0371
1775,2073,1805,1959,0350
2176,2109,1965,2060,0330
2244,2131,2260,2179,0311
2001,2163,2463,2217,0293
2169,2144,2301,2148,0277
2220,2074,2016,2037,0261
1892,2053,1786,1987,0247
1930,2049,1753,2017,0234
2237,2013,1799,2015,0221
1990,2013,1922,2020,0210
1941,2047,1857,2067,0200
2235,2085,2108,2049,0191
2105,2070,2062,2022,0184
1843,2040,2217,2026,0178
2085,2010,2138,2043,0173
2111,2005,2154,2115,0170
1829,2022,1926,2026,0169
2061,2079,1768,2030,0169
2163,2013,2200,2071,0170
1997,2088,2466,2155,0172
1967,2076,2504,2060,0174
2241,2099,1809,1956,0179
1968,2038,1499,1929,0185
1953,2014,1704,2070,0192
2189,2079,2201,2181,0201
2210,2187,1899,2138,0212
2028,2123,2267,2177,0223
2107,2091,2512,2140,0236
2232,2121,2280,2142,0250
1921,2117,2068,2006,0264
2022,2063,2031,2064,0280
2215,2057,2564,2194,0296
1915,2063,1960,2148,0314
1987,2047,1697,2053,0333
2157,2029,1660,1956,0353
2024,2026,1995,2024,0375
1970,2072,2455,2047,0398
2210,2141,2364,2096,0421
2211,2135,2366,2109,0446
1898,2082,2191,2161,0471
2104,2062,2338,2142,0497
2137,2028,1656,2011,0524
1989,1993,1753,1848,0550
2047,1999,1937,2024,0577
2296,2016,2064,2020,0604
1914,1992,2246,2062,0630
1817,1911,1834,1994,0656
2047,1998,2024,1980,0683
1912,2015,1733,1917,0709
1895,2105,0983,1753,0735
2184,1986,0951,1937,0761
2117,2011,2272,2192,0787
1979,2035,3332,2406,0812
2000,2036,2657,1980,0838
2156,2146,2121,1956,0863
1691,2072,2175,2111,0888
1678,2124,2671,2326,0913
1979,2103,2216,2251,0938
1800,1945,1556,1820,0963
1948,2096,1602,1833,0987
2270,2065,1953,1990,1011
2273,2081,1979,2047,1035
2041,2028,1887,2002,1058
2254,2003,2089,2127,1080
2338,2211,2071,2118,1102
2033,2099,1873,2035,1123
2164,2027,1826,1967,1143
2270,2042,1878,1940,1162
2051,2063,1973,2048,1181
2129,2181,2075,2156,1199
2449,2200,2175,2204,1216
2063,2091,2016,2024,1233
1864,2018,2004,1979,1249
2193,2031,2014,2012,1264
2096,2102,2131,2152,1280
1858,2062,2077,2141,1294
2118,2023,1974,1967,1308
1989,1807,1860,1752,1321
1736,2026,1986,1946,1333
2096,2150,2222,2287,1343
2185,2145,2075,2154,1353
2150,2253,2275,2283,1361
2167,2182,2136,2073,1367
2459,2256,2317,2272,1371
2195,2197,2194,2281,1374
1840,2005,2032,2063,1375
2135,1988,1953,1983,1375
2091,1846,1897,1851,1375
2118,2292,2293,2328,1373
2007,2055,2035,2041,1371
2173,2145,2073,2144,1368
1639,1846,1829,1835,1363
1759,1887,1987,1925,1357
1981,1901,1983,1903,1350
1917,1963,2012,1952,1341
1749,1929,1918,1927,1331
2141,1976,1930,1943,1320
2097,2052,2061,2077,1308
1677,2047,2035,2063,1295
1969,2057,1964,2066,1280
1976,2047,1904,2054,1265
1831,2059,2097,2096,1248
2127,2093,2151,2089,1231
2374,2089,2145,2096,1212
1949,2032,2005,2005,1192
1922,2008,1875,1955,1171
2351,2081,1979,2072,1149
2102,2102,2153,2127,1126
1972,2087,2236,2126,1102
2256,2101,2199,2114,1077
2144,2100,2148,2130,1050
1833,2044,1980,2019,1022
2133,2003,2016,2015,0994
2155,2050,1893,2028,0964
1991,2103,1893,2063,0934
2096,2061,2093,2128,0903
2345,2061,2242,2089,0871
1970,2050,1887,1996,0838
1971,2083,1790,1917,0805
2341,2014,1901,2038,0771
2139,2136,2177,2137,0737
2032,2131,2359,2261,0704
2340,2152,2399,2222,0672
2131,2049,2241,2083,0640
1827,2052,2096,2030,0608
2131,2032,1884,1972,0576
2144,2008,2021,1986,0546
1841,1956,2083,1962,0517
2015,2013,1987,1991,0490
2166,2042,1735,1955,0463
1944,2042,1795,2002,0438
1870,1962,1868,1918,0414
2226,2054,2097,2073,0390
2113,2196,2227,2161,0367
1986,2217,2043,2175,0345
2271,2234,2121,2221,0323
2194,2131,2090,2159,0303
1875,2097,2128,2109,0284
2110,2060,2075,2041,0266
2271,2084,2104,2052,0249
1872,2063,2169,2059,0235
1982,2048,2236,2087,0222
2179,2026,2094,2034,0211
1942,2035,2115,2086,0202
1861,2005,2152,2031,0196
2193,2017,2184,2041,0192
2031,1993,1934,1923,0189
1771,1948,1832,1921,0189
2119,1982,1793,1941,0189
2067,1972,1865,2021,0191
1936,2078,1888,2066,0193
2089,2058,1484,2015,0196
2178,2074,1742,2068,0200
1956,2079,2267,2192,0207
1992,2051,2698,2095,0215
2272,2084,2393,2100,0225
2136,2179,1899,2087,0236
1978,2184,1890,2122,0249
2174,2099,2253,2149,0263
2081,1987,2526,1969,0278
1892,2040,2065,2047,0294
2116,2137,1887,2026,0311
2270,2200,1749,2101,0328
1931,2035,2006,2083,0346
2042,2088,2444,2232,0365
2229,2002,2262,2063,0385
1935,2059,2101,2052,0406
1935,2015,2064,1952,0428
2200,2032,1995,2046,0451
2015,2045,2316,2127,0475
1947,2039,2022,2023,0499
2235,2092,1983,2011,0525
2122,2050,1781,1972,0550
1904,2084,2001,2097,0576
2135,2079,2282,2132,0601
2269,2146,1923,2123,0627
1883,2083,2089,2039,0652
2019,2074,2039,2118,0678
2123,2026,2180,1979,0703
1937,1999,1845,1919,0729
1879,1984,1581,1833,0754
2181,1988,1872,1927,0779
2013,2025,1754,2182,0804
1860,2041,2242,2157,0828
2138,2081,2343,2227,0852
2100,2049,2543,1999,0875
1791,1941,2050,1827,0898
2052,1991,1497,1837,0921
2213,2022,1890,2111,0943
2016,2172,2306,2209,0965
2100,2134,2458,2148,0986
2326,2135,2057,2037,1006
2019,2057,1899,2034,1026
1894,2034,2027,2053,1046
2196,2048,2121,2061,1065
2107,2079,1787,1991,1083
1855,1988,1524,1814,1101
2160,2032,2127,2084,1118
2146,2036,2562,2297,1135
1838,1982,1755,1889,1151
2064,2002,1685,1989,1166
2189,2051,2043,2070,1181
1919,2048,2381,2169,1196
2039,2125,2373,2234,1209
2254,2031,1752,1903,1223
2018,2080,1852,1988,1236
1832,2007,1820,1907,1248
2231,2153,2138,2115,1259
2100,2087,2152,2105,1270
1878,2072,2291,2173,1281
2149,2079,2058,2027,1291
2122,2017,1789,1904,1300
1785,2007,1944,2008,1309
2119,2106,2103,2123,1316
2130,1956,1891,1932,1323
1969,2145,2101,2034,1330
2009,2027,2103,2002,1335
2333,2117,2112,2159,1340
2066,2021,1952,2005,1344
1999,2091,2033,2063,1347
2261,2078,2069,2125,1349
2120,1995,2042,2036,1351
2049,2183,2184,2265,1351
2099,2131,2075,2054,1351
2180,2110,2077,2056,1350
1799,1989,2017,2059,1349
1886,2038,2013,2091,1347
2163,2073,2066,2073,1343
1938,2044,2047,2035,1339
1845,1976,1988,1971,1333
2159,2023,1993,2013,1326
2015,2031,2001,2017,1317
1787,2038,2081,2051,1308
2033,2064,2130,2081,1298
2011,2089,2117,2095,1286
1733,2040,2016,2026,1274
2001,2030,1972,2004,1261
2192,2021,1994,2014,1247
1947,2014,1871,1949,1232
2104,2057,1983,2056,1217
2325,2047,2149,2139,1200
2041,2059,2221,2117,1183
1953,2052,2202,2100,1165
2248,2041,2039,2018,1146
2122,2049,1952,2014,1126
1877,2043,1930,2001,1105
2080,2046,2007,2033,1084
2191,2066,2126,2115,1061
1913,2078,2147,2125,1037
2153,2072,2052,2075,1013
2299,2087,1843,2033,0987
1969,2051,1884,2035,0961
2015,2070,1846,2017,0934
2301,2086,2081,2005,0906
2055,2081,2342,2126,0877
1944,2087,2494,2219,0849
2207,2034,2286,2139,0820
2075,2034,1913,1990,0792
1829,2008,1820,1947,0764
2141,2035,1903,1977,0736
2224,2029,1976,2083,0709
1935,2067,2103,2073,0683
2089,2072,2129,2057,0657
2234,2080,2036,2038,0632
1906,2060,1803,1989,0607
1919,2054,1912,2020,0582
2207,2031,2065,2025,0557
2072,2099,2306,2077,0533
1919,2064,2191,2045,0510
2238,2136,1981,2073,0487
2201,2140,1933,2098,0464
1912,2087,1921,2082,0442
2127,2072,2143,2083,0421
2178,2073,2291,2107,0400
1893,2021,2226,2020,0380
1993,2055,2083,2020,0361
2239,2090,1942,2047,0342
1942,2056,1836,2037,0325
1932,2047,1882,2051,0309
2171,2008,1938,2003,0295
2048,2025,2099,2048,0281
1902,2049,1953,2013,0269
2170,2053,1950,2031,0257
2112,2044,1880,2026,0247
1847,2055,1921,2054,0239
2076,2050,1975,2078,0231
2196,2052,2273,2129,0225
1969,2081,2507,2155,0220
2000,2064,2591,2140,0216
2211,2041,2165,2003,0213
1969,2026,1739,1937,0212
1866,2033,1627,1979,0212
2097,2022,1713,1972,0212
2048,2047,1885,2021,0213
1849,2037,1831,2039,0214
2187,2075,2017,2089,0216
2217,2090,2132,2129,0218
1981,2116,2309,2089,0222
2044,2109,2168,2112,0226
2191,2104,2001,2114,0232
1951,2048,2157,2126,0238
2050,2105,1792,2019,0245
2238,2083,2314,2175,0253
2027,2064,2231,2084,0263
1882,2006,2473,2063,0273
2127,2067,2320,2059,0284
2118,2059,1894,1994,0297
1901,2039,1695,2043,0311
2028,1974,1883,2104,0326
2250,2095,2531,2129,0343
1863,2067,2595,2079,0361
2098,2122,2214,2044,0381
2242,2123,1887,1943,0401
2071,2129,1550,2052,0424
1986,2084,1841,2007,0447
2266,2058,1832,2107,0471
2004,2002,2241,2024,0496
1861,2010,2269,2199,0521
2132,2076,2429,2114,0548
2138,2083,1747,1945,0574
1865,2058,2123,2038,0600
2031,2032,2034,2058,0626
2135,1996,1734,2047,0653
1931,2062,2038,2041,0680
2043,2049,1987,1927,0706
2290,2081,1791,1989,0733
2074,2078,1744,2032,0760
1954,2062,1910,2004,0786
2192,1989,2185,2138,0812
1991,1997,2606,2215,0837
1847,2066,2249,2062,0863
2127,2085,2232,2024,0888
2020,2042,2361,2075,0913
1783,1934,1901,1938,0938
1987,2040,1680,1984,0963
2233,2085,1910,2062,0988
1919,2096,2343,2149,1012
2063,2040,1952,1992,1036
2225,2126,1545,1848,1060
2051,2105,2038,2110,1082
2014,2148,2472,2266,1104
2271,2014,2292,2149,1126
2156,2095,1766,1977,1146
1963,2039,1501,1808,1166
2293,2217,2108,2153,1185
2173,2143,2255,2227,1203
1899,2062,2155,2148,1220
2050,2049,1992,2013,1237
2174,2052,1865,1945,1253
1881,2093,1981,2026,1268
1904,1947,1966,1985,1283
2099,1862,1849,1872,1298
1974,2120,2059,2082,1312
1909,2125,2084,2111,1325
2283,2102,2095,2095,1338
2353,2121,2103,2099,1350
2068,1985,2034,1983,1362
2137,2009,2050,1993,1373
2127,2073,2067,2035,1382
1773,2109,2187,2098,1390
1723,2015,2041,2080,1397
2141,2154,2202,2235,1401
1967,2203,2181,2249,1405
1933,2126,2054,2173,1406
2312,2069,2003,2104,1407
2096,1961,1967,2011,1406
1958,2061,2040,2029,1405
2270,2111,2078,2085,1402
2196,2088,2147,2123,1399
1892,2077,2109,2088,1395
1977,1953,2005,1970,1389
2104,1968,1914,1939,1383
1884,2022,2007,2016,1375
1940,2018,2016,1997,1367
2230,2040,2067,2005,1357
1995,2018,1987,1979,1345
1936,2064,1993,2053,1333
1906,2104,2147,2166,1320
1870,2089,2088,2114,1305
1704,2051,2010,2060,1290
2014,2025,2083,2069,1273
2244,1988,2013,1961,1256
1860,1931,1921,1896,1238
2038,1938,1691,1779,1218
2274,2018,2054,2084,1198
2019,2021,2211,2101,1176
2040,2072,2313,2183,1154
2282,2050,2001,2024,1131
2003,1988,1827,1937,1108
1934,2033,1977,2025,1084
2187,2021,1920,1993,1058
2097,2047,2009,2036,1032
1935,2073,2150,2091,1006
2262,2164,2170,2185,0978
2305,2235,2042,2175,0950
1923,2126,1881,2053,0921
2120,2105,2055,2065,0892
2069,1883,2069,1954,0862
1927,2032,1909,1943,0831
1938,1952,1949,1950,0801
2285,2103,2239,2106,0770
2086,2098,2437,2248,0740
1986,2104,2399,2248,0710
2247,2083,2129,2089,0681
2146,2083,2033,2070,0653
1861,2058,1972,2001,0626
2046,1997,1861,1963,0600
2138,2024,1624,1905,0576
1929,2074,1756,1997,0553
2093,2140,2009,2104,0530
2237,2047,2222,2057,0507
1914,2011,2125,1994,0485
1895,2023,2024,1986,0464
2199,2033,1864,2009,0443
2026,2038,1961,2038,0422
1877,2041,2040,2062,0402
2113,2043,2042,2065,0383
2089,2047,2151,2052,0365
1895,2038,2039,2001,0348
2058,2030,1947,1973,0332
2138,2032,2085,2027,0318
1844,2013,2181,2022,0305
1935,1994,2252,2033,0294
2183,2020,2064,2008,0285
1970,2044,1869,2028,0278
1975,2095,1824,2057,0272
2181,2097,1796,2043,0268
2070,2110,1876,2103,0264
1993,2076,2023,2047,0262
2174,2062,2106,2071,0261
2157,2055,2080,2069,0261
1913,2047,1644,2027,0261
2011,2057,1783,2004,0262
2123,2071,2206,2091,0263
1947,2033,2817,2169,0266
2040,2102,2720,2198,0269
2259,2121,1977,2026,0275
2100,2174,1450,2035,0282
2080,2141,1586,2165,0290
2292,2121,2210,2187,0300
2160,2121,2363,2150,0310
1928,2103,2681,2123,0320
2130,2111,2614,2100,0332
2191,2146,2274,2122,0344
1992,2118,1769,2051,0357
2145,2129,1578,2074,0371
2272,2127,1877,2191,0385
2043,2131,2240,2185,0401
2051,2164,2437,2159,0417
2315,2132,2271,2159,0434
2195,2167,1905,2019,0452
2039,2232,1867,2124,0471
2306,2182,2137,2278,0491
2197,2201,2310,2213,0512
1855,2040,2023,2038,0533
2061,1985,1678,2018,0555
2071,1913,2235,1950,0578
1759,1906,1975,1986,0600
1861,2000,1960,1926,0623
1985,1957,2248,1941,0647
1924,1878,3079,2139,0671
1915,1930,2080,1746,0697
2248,2026,0965,1767,0723
2075,2091,1710,2077,0749
1831,1974,3350,2392,0776
2108,2011,3248,2208,0804
2080,2040,1618,1767,0831
1827,2022,0691,1649,0858
2052,2055,1583,1995,0885
2165,1935,1701,2037,0911
1854,1950,0924,1779,0937
1922,2004,1726,1989,0961
2168,2091,2477,2104,0985
1928,2068,2856,2144,1009
1915,1992,2429,1944,1031
2417,2261,1764,2102,1053
2184,2242,2208,2271,1075
2022,2151,2508,2345,1096
2191,2092,2346,2207,1117
2137,2062,1967,1957,1138
2002,2063,1729,1947,1158
2130,2104,2091,2137,1177
2204,2016,2115,2164,1197
1920,2083,2115,2100,1215
1899,1975,1912,1939,1233
2133,1970,1789,1906,1250
1872,1963,1883,1955,1266
1774,1913,1825,1880,1281
2051,1925,1768,1842,1296
2062,2018,1993,2012,1309
1873,2021,1944,1949,1322
2227,2032,1971,1992,1335
2363,2114,2045,2075,1347
1919,1984,1972,1959,1358
1984,2035,2040,1968,1368
2099,2121,2112,2120,1377
1773,2108,2115,2112,1385
1828,2082,2131,2138,1391
2160,2148,2150,2097,1396
2016,2091,2154,2189,1399
2078,2219,2152,2258,1401
2194,2031,1899,2041,1402
2258,2238,2121,2215,1402
1795,1960,1974,2010,1401
2111,2040,2056,2039,1399
2191,2062,2108,2074,1397
1921,2096,2112,2096,1394
2096,2119,2158,2123,1389
2097,1920,2007,1938,1384
1944,2031,2084,2037,1378
1983,2072,2065,2059,1371
2193,2005,1982,1994,1363
2094,2031,2005,2019,1353
1905,2012,1996,2027,1343
2147,1997,1971,2023,1332
1965,2007,1997,2023,1320
1583,1998,1974,1978,1307
1795,2038,1993,2026,1293
1996,2062,1918,2024,1278
1852,1988,1743,1909,1262
2039,2035,2166,2119,1245
2246,2063,2265,2126,1227
2084,2080,2322,2169,1208
2039,2057,1979,2017,1188
2412,2085,1977,2058,1167
2184,2095,2201,2109,1145
1977,2079,2156,2075,1123
2353,2133,2142,2125,1099
2269,2099,2032,2086,1074
2005,2120,2053,2112,1049
2213,2128,1982,2129,1022
2360,2197,1910,2139,0994
1941,2061,1983,2060,0965
1950,1982,1945,1952,0935
2099,1925,1998,1885,0905
1915,2014,2108,2024,0873
1803,1992,2180,2027,0842
2160,1984,1898,2006,0810
2005,1970,1725,1951,0778
1785,1983,1963,1947,0747
2120,2055,2405,2185,0717
2185,2047,2303,2090,0687
1938,2095,2030,2089,0657
2106,2087,1933,2023,0629
2231,2051,2053,2005,0601
2051,2133,2114,2086,0575
1995,2079,1900,2024,0548
2202,2046,1919,2015,0522
2008,2047,2040,1999,0496
1833,1998,1992,1961,0470
2218,2096,2128,2134,0443
2173,2136,2149,2162,0417
2012,2173,2144,2173,0391
2179,2083,2036,2090,0365
2215,2121,2027,2089,0339
1928,2097,1898,2082,0314
2163,2156,1980,2106,0290
2295,2117,2043,2117,0267
2034,2144,2324,2180,0245
1971,2071,2229,2081,0224
2153,1991,2093,1994,0205
1898,1935,1953,1943,0187
1784,1951,1984,1971,0172
2099,2001,2083,1993,0158
2059,2002,1994,1977,0146
1891,2035,2003,2015,0136
2024,1994,1856,1975,0128
2122,2004,1675,1952,0121
1877,2014,1677,1987,0116
1972,2019,1973,2093,0112
2214,2059,2153,2093,0110
1991,2051,1919,2007,0108
1936,2065,1551,1953,0108
2166,2056,1879,2048,0109
2023,2017,2499,2137,0110
1897,2043,2825,2118,0112
2148,2060,2401,2047,0115
2179,2104,1805,1987,0119
1915,2109,1807,2081,0125
2048,2066,2094,2107,0133
2226,2092,2296,2200,0141
2027,2122,1879,2104,0151
2028,2107,2184,2091,0161
2231,2129,2187,2077,0172
2036,2096,2276,2080,0184
1894,2064,1924,2051,0196
2205,2073,1615,2006,0210
2029,2005,1652,2007,0224
1927,2035,2307,2151,0240
2176,2048,2306,2049,0256
2217,2102,2438,2135,0273
1926,2051,2187,2066,0291
2021,2029,2359,2133,0310
2198,2073,2111,2066,0330
1960,2080,2167,2122,0351
2075,2179,2050,2106,0372
2359,2219,2323,2249,0394
2176,2178,2067,2148,0417
2000,2123,2026,2095,0440
2218,2118,1897,2057,0464
2027,1998,1845,2032,0487
1786,1909,1204,1819,0511
2026,1877,1734,1908,0535
2101,1977,2457,2020,0559
1784,1967,2801,2121,0582
1964,2022,2384,1955,0606
2183,1989,1239,1872,0631
1893,1958,1517,1891,0655
1919,2019,2068,2015,0680
2182,1952,2561,2123,0704
2113,2197,2455,2205,0728
1896,2078,1606,1940,0752
2206,2079,2067,2165,0776
2118,1990,1775,2031,0800
1739,1960,2302,2130,0823
2023,2073,2401,2131,0845
2114,2073,2233,1943,0868
1902,2159,2232,2088,0890
2056,2006,1749,1943,0912
2264,2097,1027,1861,0933
1933,2003,1877,1949,0953
1940,2169,2157,2147,0973
2194,1919,1953,1965,0992
2076,2009,1921,2065,1010
1903,2079,1872,2063,1028
2176,2128,1935,2043,1046
2209,2211,2486,2209,1063
1994,2061,2685,2391,1080
2181,2222,2699,2289,1097
2361,2147,2251,2207,1113
2113,2258,1354,1788,1129
2141,2143,1848,2043,1145
2331,2170,2585,2415,1161
2055,2120,2272,2183,1176
1923,1984,1891,1993,1190
2095,1912,1603,1758,1204
2104,2071,1950,2003,1217
1872,2071,1980,2018,1230
2171,2043,1933,1995,1242
2149,1929,1942,1965,1254
2031,2101,2125,2118,1264
2144,2033,2020,2042,1275
2300,2063,2035,2049,1284
2016,2167,2110,2125,1293
1861,1993,1998,1995,1301
1970,1973,1952,1966,1308
1824,1970,1969,1976,1315
1747,1966,1997,1986,1321
2124,2104,2162,2143,1327
2045,2049,2124,2111,1331
1821,2033,2047,2031,1335
2011,1983,1980,1950,1338
2007,1899,1926,1907,1341
1791,1939,1933,1915,1342
2003,1999,2050,2023,1343
2270,2095,2088,2155,1343
1910,2028,2008,2091,1343
2094,2192,2176,2216,1342
2351,2160,2098,2144,1340
2091,2125,2075,2102,1337
1950,2075,2070,2121,1332
2056,1881,1879,1887,1326
2131,2071,2081,2072,1319
1748,1986,2012,1977,1310
2029,2039,1865,1960,1300
2060,1956,1791,1907,1288
1836,2075,2173,2162,1276
2049,2023,2170,2074,1262
2389,2046,2251,2108,1248
1984,1981,1993,1946,1233
1781,1982,1952,1963,1217
2006,2055,2106,2073,1200
1845,2094,2089,2081,1182
1736,2073,1995,2039,1164
2076,2069,2017,2049,1145
2147,2082,2066,2089,1125
1917,2090,2025,2068,1104
2169,2041,1967,2015,1082
2315,2023,1996,2025,1059
1966,2038,2043,2045,1035
2063,2035,1791,1992,1010
2386,2040,1654,1996,0984
2149,2087,1991,2040,0957
2050,2060,2433,2183,0928
2327,2076,2399,2206,0899
2207,2087,2152,2088,0869
1999,2133,1974,2103,0840
2177,2076,2225,2130,0811
2119,2060,2174,2093,0783
1844,2008,2114,2062,0756
1992,2040,2104,2024,0729
2264,2059,2091,2044,0703
1968,2073,1993,2031,0679
2020,2086,1854,2006,0654
2277,2106,1899,2036,0630
2027,2070,2031,2064,0607
1912,2065,2125,2048,0583
2214,2071,2072,2042,0559
2214,2163,2062,2128,0534
1842,2040,1921,2013,0510
2095,2041,2042,2032,0486
2234,2087,2161,2052,0462
1819,2048,2063,2023,0438
2046,2069,1967,2025,0416
2195,2021,1885,2032,0394
1877,2015,2093,2049,0373
1934,2062,2188,2061,0353
2231,2045,2149,2048,0334
2026,2063,2065,2040,0316
1836,2037,1979,2039,0299
2145,2016,1964,2016,0283
2119,2029,1986,2028,0268
1876,2054,1993,2051,0255
2110,2066,1995,2048,0242
2192,2047,2003,2047,0231
1910,2066,2024,2047,0220
2010,2074,2023,2085,0211
2256,2089,1914,2070,0203
2029,2097,1767,2059,0196
1963,2086,1806,2080,0190
2225,2084,2157,2119,0186
2097,2067,2370,2125,0182
1907,2075,2413,2111,0180
2176,2108,2239,2109,0179
2178,2095,2191,2091,0179
1910,2079,2211,2077,0179
2093,2075,2077,2048,0179
2251,2122,1809,2044,0180
2015,2148,1635,2059,0182
2061,2130,1755,2108,0184
2267,2119,2303,2112,0187
2022,2061,2549,2204,0191
1910,2041,2209,2067,0195
2197,2062,1831,2023,0200
2116,2098,1587,2042,0206
1911,2091,1873,2044,0212
2190,2129,2420,2255,0218
2200,2092,2550,2187,0226
1905,2099,2303,2068,0234
2018,2040,1999,1971,0242
2257,2030,1990,2043,0251
1915,2031,2236,2114,0261
1973,2000,1966,2013,0272
2166,1996,1373,1901,0283
1979,2008,1730,1936,0296
1848,2036,2192,2108,0309
2181,2019,2268,2031,0323
2107,2043,2097,2123,0338
1765,2047,2473,2077,0354
2071,2000,2804,2240,0371
2165,2058,2090,2042,0389
1869,2034,1405,1926,0408
1991,2023,1325,1878,0429
2239,1987,2131,2006,0449
1949,2024,2428,2069,0470
1963,2045,2383,2087,0492
2288,2150,2040,2063,0514
2041,2157,1872,2048,0535
1882,2092,1815,1981,0557
2195,2067,1815,1993,0579
2130,2038,1846,2029,0600
1906,2019,1214,1871,0622
2119,2050,1534,1946,0644
2189,2021,2467,2166,0665
1883,2031,2981,2254,0687
1967,2032,2514,2107,0709
2210,2061,2163,2086,0730
1963,2058,2220,2006,0752
1889,2009,2310,2107,0774
2238,2056,1810,2079,0796
2120,2082,1817,1987,0817
1923,2087,2047,2117,0839
2149,2001,1482,1757,0859
2099,2020,1619,1973,0879
1755,2014,1952,2131,0899
2024,2076,2000,2080,0918
2163,1977,1640,1786,0936
1844,1973,1795,1853,0954
1868,1967,2987,2373,0971
2171,2074,3018,2389,0988
1987,2114,2216,2100,1004
1913,2061,1426,1759,1021
2228,2061,1630,1875,1037
2078,2034,1881,2019,1053
1869,2045,1980,2098,1068
2211,2106,2123,2123,1083
2191,2079,2183,2127,1098
1856,2031,1948,1989,1112
2069,2075,1867,1975,1125
2258,2075,1990,2053,1137
1943,2051,1999,2013,1149
1991,2024,1980,2035,1160
2245,2095,2017,2040,1170
2055,2130,2079,2113,1179
1932,2100,2044,2056,1188
2239,2039,2056,2072,1195
2001,1948,1936,1902,1202
1926,2053,2155,2113,1208
2267,2294,2216,2246,1213
2199,2088,2085,2086,1218
1915,2088,2066,2122,1222
2068,2145,2115,2145,1225
2240,2093,2063,2109,1227
2037,2239,2196,2211,1228
1992,2067,2042,2047,1229
2246,2025,2049,2022,1228
2161,2205,2231,2221,1228
1833,2034,2037,2022,1227
2180,2039,2050,2043,1225
2083,1995,1989,1981,1222
1725,1940,1916,1923,1218
2050,1981,2030,2025,1212
2129,1921,1917,1927,1205
1878,2016,2036,2063,1197
1969,2039,2010,2033,1188
2298,2072,2093,2096,1177
1998,2029,2051,2047,1166
1949,1990,2040,2034,1154
2217,2083,2003,2040,1141
1955,2043,2009,2038,1127
1893,2082,2037,2033,1112
2143,2023,2012,2011,1096
2163,2030,1989,2009,1080
1861,2063,2006,2059,1062
2055,2049,2082,2087,1044
2257,2093,2180,2143,1025
1881,2046,2080,2064,1004
1993,2035,1979,2020,0983
2209,2042,1998,2029,0961
2028,2033,1938,1977,0937
1903,2037,1936,1989,0913
2196,2029,2207,2168,0887
2161,2083,2251,2171,0860
1873,2070,2140,2113,0833
2037,2041,1794,1962,0804
2081,2068,1872,2053,0776
1797,2124,2271,2162,0747
2074,2184,2432,2191,0718
2277,2072,2245,2079,0690
2051,2112,2063,2051,0661
2072,2119,2011,2070,0633
2383,2095,2086,2112,0605
2146,2096,1997,2035,0578
1990,2087,2011,2048,0551
2199,2076,1989,2019,0524
2055,2034,1950,2019,0498
1765,1944,1782,1925,0473
1990,1946,1747,1887,0448
2086,1954,1808,1938,0423
1853,2012,1945,2001,0399
1963,1972,1943,1973,0376
2171,1951,2079,1957,0353
1915,2000,2133,1993,0331
1972,2097,2247,2095,0311
2270,2081,2105,2067,0291
2137,2121,1986,2089,0274
1938,2130,2077,2155,0258
2225,2138,2314,2217,0245
2149,2035,2337,2071,0233
1958,2107,2278,2106,0223
2105,2080,1938,2027,0214
2254,2141,1818,2095,0208
1961,2074,1626,2011,0203
1992,2018,1864,2028,0199
2139,1989,1986,1991,0196
1943,2015,2159,2043,0194
1906,2015,2138,2017,0193
2203,2039,1883,1966,0193
2020,2015,1749,2015,0193
1905,2080,1931,2080,0194
2158,2067,2036,2066,0194
2167,2063,2355,2140,0196
1845,2055,2495,2107,0198
2010,2061,2111,2073,0201
2269,2106,1814,2011,0204
1950,2048,1648,1954,0209
2054,2091,2059,2107,0215
2200,2029,2109,2123,0221
1921,2042,2513,2068,0228
1871,1992,2502,2130,0236
2184,2080,2320,2028,0245
2130,2104,1700,2008,0255
1982,2141,1435,2025,0266
2212,2126,1789,2116,0278
2329,2152,2394,2218,0291
1893,2106,2472,2148,0305
2105,2096,2161,2028,0320
2175,2036,1857,2044,0335
2002,2000,1656,2026,0352
2031,2071,1696,1998,0369
2245,2097,2117,2035,0387
2051,2107,2419,2114,0406
1929,2056,2459,2068,0425
2204,2117,2033,2164,0445
2165,2087,1899,2026,0466
1827,2021,1800,2088,0488
2027,1987,1907,1981,0510
2163,1996,2096,2101,0533
1813,1915,2335,1947,0556
2055,1915,1613,1818,0580
2169,1925,1279,1743,0604
1831,1989,1917,1932,0628
1789,1975,2968,2247,0652
2167,2070,2568,2084,0676
2060,2139,1446,1994,0700
1972,2152,1295,1888,0724
2202,2058,2093,2248,0748
2065,2093,2440,2198,0772
1830,2071,2272,2156,0795
2097,2089,2144,2003,0818
2215,2112,2166,2056,0841
1837,1984,1531,1885,0863
2053,2031,1798,2013,0886
2224,2063,2351,2101,0908
1937,2035,2560,2094,0929
1958,2051,2061,1953,0951
2280,2000,1661,1903,0972
2269,2128,1794,2066,0993
1881,2122,2129,2139,1013
2045,2067,1993,2081,1033
1990,2026,1677,1932,1052
1742,1965,2104,2107,1071
2130,2084,2463,2199,1090
2329,2099,2183,2078,1108
2021,2116,1686,1893,1125
2003,2140,1628,1929,1141
2355,2107,2355,2239,1157
2029,2129,2569,2268,1173
1890,2021,2138,2092,1188
2227,1978,1865,1965,1203
2114,2102,1854,1955,1217
1795,2011,1856,1926,1231
2140,2074,1958,1999,1245
2082,1937,1875,1919,1257
1891,2027,2030,2027,1270
2223,2258,2233,2214,1281
2212,2035,2021,2048,1292
2008,2259,2184,2245,1302
1821,1969,1944,1936,1312
2181,1987,2046,2049,1320
1799,1834,1819,1779,1327
1923,2140,2129,2120,1333
2107,2017,1951,1962,1337
2196,2198,2165,2235,1340
1891,2012,2040,2143,1342
2156,2037,2040,2118,1342
2144,2025,1938,2017,1342
1937,2048,2071,2093,1341
2023,2011,2035,2026,1339
2296,2063,2121,2093,1336
1974,2037,2085,1987,1332
1970,2062,2063,2054,1326
2227,2071,2076,2060,1319
2035,2059,2056,2066,1310
2011,2027,2011,2027,1300
2134,2064,2043,2042,1290
2079,2081,2014,2056,1278
1680,2054,2073,2077,1265
1713,2053,2088,2062,1251
1920,2080,2110,2091,1236
1723,2035,1857,1974,1219
1979,2036,1879,1981,1202
2317,2050,2164,2113,1184
2104,2041,2181,2058,1165
2127,2014,2055,2005,1145
2389,2039,1955,2016,1124
2154,2029,1966,1998,1102
2035,2072,2101,2097,1079
2249,2034,1887,2025,1054
2226,2073,2040,2102,1029
1886,2028,2213,2093,1002
2099,2042,2185,2026,0975
2282,2084,1922,2062,0946
1929,2072,1686,1958,0918
1954,2079,1985,2045,0889
2269,2084,2285,2077,0859
2056,2079,2320,2158,0830
1915,2014,1957,2063,0800
2178,2045,1901,2023,0771
2169,2072,2221,2081,0742
1875,2085,2315,2136,0714
2187,2104,2282,2151,0687
2242,2117,2031,2136,0661
1926,2094,1976,2029,0636
1986,2011,1970,1935,0611
2242,2003,2051,2053,0586
1926,2028,1841,1950,0562
1855,2017,1896,1999,0539
2185,2076,1937,2059,0515
1933,2011,1902,1966,0492
1910,2063,1888,2021,0469
2237,2064,1871,2022,0447
2205,2071,2116,2095,0425
1974,2123,2257,2117,0404
2151,2047,2234,2085,0384
2223,2050,2111,2031,0365
1820,2037,1779,1953,0347
1919,2065,1811,2031,0330
2055,2039,2312,2117,0315
1887,2024,2554,2140,0301
1851,2037,2438,2058,0290
2231,2094,2074,2051,0279
2143,2126,1873,2054,0271
1951,2086,1806,2072,0263
2256,2131,1752,2056,0258
2129,2049,1585,1965,0253
1839,2001,1605,1963,0250
2095,2073,2119,2100,0248
2153,2050,2228,2143,0247
1926,2102,2424,2092,0247
2003,2041,2350,2098,0248
2256,2088,1940,2055,0249
2015,2174,1977,2131,0252
2034,2129,2279,2212,0256
2232,1997,2546,2143,0262
2023,2023,2237,1960,0269
1891,2023,1714,1921,0278
2141,2036,1805,2049,0288
2292,2123,1894,2093,0299
1879,2034,1842,2040,0311
2101,2104,1918,2014,0324
2124,2020,2000,1957,0338
1961,2048,1922,2012,0353
2028,2034,2027,2081,0369
2191,2024,2178,2098,0385
1951,2089,2635,2185,0404
1973,2058,2802,2128,0423
2191,2057,2442,1970,0444
2196,2086,1967,2053,0466
2030,2069,1753,2037,0489
2214,2077,1750,2123,0514
2315,2053,1835,2038,0539
1800,1971,1963,1972,0564
1808,1999,2069,1959,0590
2036,2014,1386,1909,0616
1682,2064,1679,1936,0643
1893,1957,2018,2043,0669
2171,2016,2485,2113,0695
2029,1934,2254,2055,0722
1894,2038,2153,2048,0749
2245,2141,1735,1992,0776
2260,2174,1583,2097,0804
2048,2194,2072,2157,0831
2139,2006,2468,2030,0858
2535,2240,2970,2305,0885
1715,2157,1808,1941,0912
1782,2103,1302,1853,0938
2017,2096,1582,1991,0965
1867,2026,2816,2293,0991
1986,2053,2391,2174,1017
2335,2039,2124,2109,1042
2120,2121,2059,2009,1067
1882,2009,2041,2058,1091
2128,2116,1973,2009,1114
2234,1897,1731,1901,1136
1863,2097,1608,1857,1158
2133,1995,1812,1994,1178
2239,1970,1840,1946,1198
1918,2052,1839,1955,1217
2020,2066,1901,1999,1235
2292,2112,2047,2076,1252
2042,2099,2063,2103,1269
2002,2067,2083,2109,1285
2321,2119,2118,2131,1300
2089,2091,2016,2023,1314
1869,2005,2031,2004,1328
2118,2005,2049,1998,1342
2074,1934,2008,2014,1354
1931,2133,2115,2112,1366
2118,2066,2032,2013,1377
2430,2118,2079,2034,1387
2124,1848,1888,1801,1396
2153,2189,2175,2225,1403
2128,2100,2067,2180,1408
1872,2177,2132,2231,1412
1673,2005,2001,2105,1414
2065,1980,2027,2064,1414
2014,2105,2019,2043,1414
1743,2000,1964,2002,1413
2112,2159,2253,2193,1411
2131,2040,2159,2075,1408
1900,2081,2191,2099,1405
1927,1983,1961,1925,1400
2185,2012,1977,1989,1394
1917,2027,2033,2035,1387
1957,2013,1996,2016,1378
2232,1997,1967,1994,1369
2016,2011,2003,2017,1359
1764,2020,2007,2012,1347
1940,2042,2013,2044,1335
1907,2078,1994,2058,1322
1621,2048,2063,2063,1308
2078,2065,2095,2065,1293
2203,2017,1967,1991,1277
1949,2032,1897,2003,1260
2097,2070,2127,2081,1242
2358,2033,2025,2004,1223
2067,2077,2172,2073,1203
2015,2067,2221,2207,1183
2359,2114,2219,2171,1161
2179,2116,2200,2159,1139
1942,2064,1952,2014,1116
2287,2095,1975,2049,1092
2132,2011,1995,2031,1067
1932,1993,1836,1959,1042
2114,2003,1599,1915,1015
2193,2079,1905,2057,0988
1979,2066,2143,2017,0961
2001,2043,2253,2063,0932
2307,2064,2253,2090,0903
2015,2055,2093,2069,0873
1877,2065,2123,2073,0843
2251,2091,2119,2115,0813
2109,2126,2003,2135,0784
1895,2071,2094,2152,0755
2184,2041,2209,2076,0727
2143,2014,2220,2042,0700
1861,2022,2120,1994,0674
2079,2061,1955,1983,0649
2217,2040,1880,1988,0625
1899,2078,1972,2072,0601
1969,2063,1931,2041,0578
2269,2064,1915,2027,0555
2068,2062,1939,2054,0532
1881,2038,2055,2043,0509
2223,2059,2112,2051,0485
2011,1968,1983,1957,0462
1951,2097,1877,2053,0438
2247,2181,1987,2122,0414
2337,2229,2281,2225,0391
1980,2141,2374,2171,0368
2033,2071,2419,2149,0346
2098,2018,2185,2024,0325
1831,1991,1883,1952,0306
1965,2026,1637,1922,0287
2136,1917,1552,1873,0270
2119,1991,1829,2000,0255
1926,1991,2048,2050,0241
2193,2092,2233,2108,0228
2087,2106,2013,2074,0217
1742,2040,2015,1983,0207
1910,2013,2071,1985,0200
2027,2045,2110,2046,0194
1800,2047,1850,2075,0190
1984,2089,1966,2173,0188
2170,2027,2121,2147,0187
1817,1965,2198,2141,0188
1949,2028,2409,2032,0189
2281,2008,2040,1982,0191
2163,2111,1891,2003,0195
2032,2087,1749,1990,0200
2183,2015,1849,2054,0206
2192,2081,2184,2059,0214
1907,2147,2348,2131,0223
2215,2217,2160,2113,0233
2217,2142,2011,2093,0243
1973,1935,1949,2119,0255
2007,2000,2258,2078,0268
2301,2099,1998,2075,0281
2015,2288,1188,2010,0295
1850,2003,1814,2149,0310
2194,1765,2350,2221,0327
2025,1730,3356,2089,0345
1846,2166,2827,1956,0364
2123,2392,1913,1901,0385
2137,2322,1585,1952,0408
1913,2001,1974,2034,0432
2127,1974,1664,2052,0458
2295,2152,2275,2117,0485
2175,2090,2162,2175,0512
2047,1954,2150,2083,0540
2214,2065,1948,2033,0569
1857,2066,1604,1931,0597
1672,2057,2125,2040,0625
2103,1993,1808,2045,0653
2090,2045,1724,2046,0681
1845,2095,1659,1997,0709
2021,2070,2256,2004,0737
2183,2037,1880,2025,0764
2034,2042,2120,2138,0792
1968,2019,2144,2097,0819
2009,2000,2482,1968,0846
1875,2111,2585,2070,0873
1900,2127,2377,2095,0899
2284,2105,2368,2304,0926
2129,2072,2141,2166,0952
1841,1991,1556,1821,0979
2198,2056,1508,1862,1004
2206,2096,1954,2073,1030
1915,2055,1959,2071,1054
2112,2070,1823,1956,1078
2211,2073,1871,1960,1101
1891,1992,1973,2011,1123
2075,2014,2123,2131,1144
2270,2073,2139,2121,1164
2008,2126,1919,1971,1184
2156,2229,2047,2144,1202
2299,2040,2033,2086,1220
2180,2087,2009,2059,1238
1762,1812,1776,1837,1254
2130,2046,1981,1978,1270
2173,2041,2102,2087,1286
2230,2335,2285,2290,1301
2183,2134,2123,2125,1315
2207,2114,2086,2063,1329
1713,1813,1875,1843,1343
1797,1850,1814,1758,1355
2184,1901,1905,1791,1367
2300,2176,2161,2161,1378
1870,2029,2008,2130,1388
2121,2109,2134,2275,1395
1957,2157,2090,2158,1401
1604,2048,2012,2016,1405
1919,1966,1986,2020,1407
2080,2015,1983,2093,1408
1736,1950,1905,1970,1407
1945,2045,2038,2069,1406
2186,2058,2140,2100,1404
1913,1999,2123,2035,1401
1852,1979,2033,1964,1396
2123,1967,1920,1927,1391
1914,1933,1963,1931,1384
1945,2031,2063,2026,1376
2248,2086,2081,2091,1367
2237,2135,2107,2127,1356
1930,2027,2011,2027,1344
2086,2055,2054,2054,1331
1896,2074,2058,2069,1317
1531,2034,2008,2040,1302
1868,2129,2106,2108,1285
2211,2112,2096,2099,1268
2106,2131,2107,2123,1249
2112,2032,2007,2021,1229
2362,2015,1975,2009,1208
2128,2022,1859,1976,1186
2016,2080,1916,2020,1163
2422,2166,2076,2112,1139
2206,2139,2335,2216,1113
1893,2089,2327,2186,1087
2109,1995,1998,1968,1060
2254,2062,2018,2082,1033
1844,2002,2084,2022,1004
2037,2024,2236,2104,0975
2310,2038,2207,2095,0946
2084,2126,1916,2035,0916
2032,2093,1873,2036,0886
2358,2107,2001,2083,0856
2094,2085,2097,2061,0826
1832,2019,1750,1919,0797
2175,2037,1922,2012,0768
2144,2092,2334,2134,0739
1952,2095,2470,2127,0710
2140,2073,2177,2078,0682
2261,2043,1795,1972,0654
1868,2023,1867,2009,0626
1917,2033,2094,2042,0597
2333,2087,2064,2067,0569
1921,1978,1703,1926,0541
1892,2083,1954,2070,0514
2264,2097,2221,2103,0487
2085,2113,2304,2129,0460
1934,2128,2275,2120,0433
2278,2084,1854,2040,0407
2199,2056,1809,2011,0382
1768,1996,1764,1957,0357
2015,2024,1702,1979,0334
2138,2023,1890,2031,0313
1898,2099,2272,2142,0293
2032,2089,2549,2138,0274
2271,2075,2384,2043,0257
2015,2084,2024,2026,0242
1983,2072,1821,2061,0229
2166,2075,1955,2130,0217
2044,2048,2094,2112,0207
1841,2105,2049,2106,0199
2068,2091,2115,2068,0193
2114,2058,2166,2076,0188
1839,2006,2369,2007,0185
1911,1966,2299,1991,0184
2165,2003,1790,1927,0185
1887,2015,1437,1932,0186
1843,2043,1245,1937,0188
2231,1983,1786,1997,0192
1975,2006,2302,2133,0198
1920,2104,2103,2138,0205
2252,2146,1994,2103,0214
2216,2098,1810,2028,0224
1991,2071,2201,2056,0235
2140,2059,2239,2077,0247
2215,2110,2208,2148,0261
2023,2130,2936,2265,0275
2021,2152,2738,2234,0291
2238,1989,2499,2105,0308
2134,2026,2087,2047,0326
1880,1978,1677,1929,0346
2181,2120,1624,1887,0367
2009,2205,1078,2082,0390
2031,2289,1730,2100,0413
2157,2146,2109,2178,0438
2290,2015,2321,2047,0464
1889,1916,2068,1950,0490
1998,1809,2271,2006,0517
2066,1874,2670,2107,0545
1965,1991,2279,1931,0573
2160,2129,1691,2077,0602
2214,2136,1629,2009,0630
1977,2093,2055,2135,0659
1901,2024,2656,2161,0688
2084,2094,1522,1946,0717
2038,2074,1366,1777,0745
1902,2017,1497,1887,0774
2093,2052,2150,2177,0802
2040,2036,2506,2150,0830
1784,2012,1979,1930,0858
2176,1983,1919,1843,0885
2147,2047,2351,2095,0913
2179,2119,2702,2388,0939
2059,2199,2600,2262,0965
2229,2166,2270,2118,0991
1992,2158,1870,2057,1017
1744,2163,2043,2155,1042
1916,2025,1918,2024,1067
1963,2072,1626,1879,1090
1864,1971,1593,1874,1114
2032,2000,2023,2054,1136
2118,1882,2227,2117,1158
1897,2069,1859,1938,1179
2024,1907,1673,1853,1198
2155,1958,1832,1927,1217
1935,1997,1886,1925,1236
1943,1981,1883,1963,1253
2319,2119,2015,2046,1269
2203,2163,2143,2143,1285
1924,1973,1951,1941,1300
2320,2076,2078,2072,1314
2264,2144,2175,2149,1328
2008,2128,2129,2137,1342
2219,2148,2125,2156,1354
2101,1917,1891,1880,1366
1942,2102,2125,2145,1376
2118,2192,2193,2220,1385
2244,2169,2177,2201,1392
2083,2224,2215,2217,1398
2261,2364,2387,2396,1401
2263,2170,2162,2182,1404
2100,2032,2048,2056,1404
1766,1769,1797,1792,1403
1928,1889,1867,1848,1402
1937,1891,1893,1907,1400
1701,1847,1853,1840,1398
1922,1932,1955,1965,1394
2113,1995,2014,2011,1389
1956,2084,2106,2083,1383
1935,1997,2000,1992,1376
2239,2063,2016,2042,1367
1780,2075,2122,2093,1358
1690,2034,2090,2010,1348
2076,2042,2066,2080,1336
1941,2073,2050,2078,1324
1796,2088,2057,2124,1310
2337,2090,2077,2108,1296
2291,2073,2032,2053,1280
1959,2033,1921,2010,1263
2129,2040,2019,2051,1245
2270,2105,2139,2110,1227
1954,2101,2099,2085,1207
1968,2085,2065,2079,1186
2303,2092,2061,2078,1164
2029,2054,2164,2103,1141
1858,2037,2119,2041,1117
2271,2050,2091,2066,1093
2113,2033,2013,2022,1067
1833,2031,2024,2029,1040
2217,2059,1998,2039,1012
2197,2055,1720,1985,0983
1890,2022,1692,1981,0953
2019,2037,1930,1993,0922
2299,2097,2361,2115,0891
1969,2104,2515,2169,0858
1985,2047,2274,2115,0825
2341,2107,2107,2144,0792
2087,2095,2021,2127,0760
1822,2043,1729,1954,0727
2178,2043,1931,2053,0696
2172,2089,2329,2137,0665
1913,2091,2436,2159,0636
2135,2046,2117,2038,0607
2255,2020,1775,1939,0579
1910,2087,2007,2021,0552
2015,2092,2203,2111,0526
2283,2078,2062,2051,0501
1961,2011,1848,1949,0477
1941,2032,1879,1983,0453
2233,2000,1844,1965,0431
2143,2123,1889,2042,0409
1915,2126,1915,2076,0387
2253,2171,2027,2170,0366
2199,2156,2031,2154,0346
1928,2125,2075,2086,0326
2111,2061,2202,2075,0308
2214,2017,2346,2059,0291
1818,2015,2103,1981,0275
1842,2027,1879,1977,0262
2151,2032,1890,2050,0250
1845,2024,2324,2102,0241
1785,2025,2491,2126,0233
2151,2043,2252,2055,0228
2057,2030,1832,1983,0225
1847,2034,1659,1948,0223
2126,2011,1632,1942,0223
2145,1991,1824,2001,0223
1896,2019,2095,2067,0224
2052,2026,2023,2019,0226
2299,2134,2099,2150,0229
2011,2131,2191,2165,0234
2008,2165,2218,2198,0240
2220,2110,1965,1968,0248
2035,2075,1759,1974,0257
1928,2001,2011,2050,0267
2165,2031,2364,2138,0279
2157,2054,2513,2162,0291
1924,2093,2045,2047,0304
2126,2114,1891,2101,0318
2196,2082,1963,2127,0334
1966,2104,2125,2164,0350
1967,2079,2406,2025,0367
2206,1973,2277,2014,0385
1935,2008,1681,1898,0404
1927,2027,2022,1988,0424
2228,2043,2237,2166,0445
2066,1999,1905,2011,0467
2110,2190,1770,2111,0490
2406,2185,2179,2188,0513
2440,2033,2572,2145,0538
1986,2024,2347,2087,0564
1987,1981,1510,1963,0590
1987,2019,1680,1969,0616
1671,1991,2288,2068,0643
1799,2085,2246,1951,0670
2083,2095,2185,1960,0698
1883,2003,1821,1855,0725
1855,1864,1551,1890,0753
2263,2020,1356,2036,0781
2195,2264,2323,2265,0809
2009,2204,3195,2397,0837
2419,2128,2732,2127,0865
2212,2101,1829,1939,0892
1871,2026,1522,1899,0920
1731,2179,1893,2064,0947
1973,2155,1787,1988,0974
1708,2039,1654,1902,1000
2019,1987,1983,1979,1026
2184,1909,2301,2069,1052
2002,1976,1433,1824,1076
1860,2010,1272,1823,1100
2328,1963,2472,2287,1123
2270,2188,3107,2481,1145
2027,2154,2797,2314,1167
2205,2204,1737,1873,1188
2184,2013,1588,1885,1208
1880,1982,2060,2037,1227
2023,2010,1983,2011,1246
2180,1851,1680,1862,1265
1939,2022,1849,1951,1282
1917,2084,1921,1999,1299
2315,2160,2038,2093,1316
2080,1987,2044,2029,1332
1948,1994,2145,2101,1347
2166,2100,2013,2010,1362
2183,2150,2075,2075,1376
1828,1939,1993,1983,1389
1897,1830,1896,1835,1400
2084,1933,1931,1817,1410
1920,2176,2132,2101,1418
2175,2226,2226,2325,1425
2296,2142,2096,2260,1430
2109,2081,2081,2236,1433
1909,2105,2027,2064,1435
2257,2061,2085,2107,1435
2015,2089,2012,2070,1434
1786,1934,2035,2006,1432
2136,2013,2031,1987,1430
2112,2007,2059,2022,1426
1922,2126,2192,2113,1420
2122,2048,2088,2050,1414
2239,2073,2119,2105,1406
2016,2107,2075,2077,1397
2059,2065,2033,2035,1386
2228,2029,2040,2033,1375
1827,2025,2012,2019,1363
1541,1997,1961,2000,1349
1878,2017,1999,2031,1335
1752,2011,2005,2004,1320
1686,1997,1967,1970,1304
2145,2034,1944,2005,1287
2234,2031,1918,2015,1268
1980,2062,1989,1995,1249
2159,2039,2173,2072,1228
2357,2067,2264,2133,1207
2061,2079,2131,2102,1184
2040,2044,2026,2059,1161
2364,2095,2036,2062,1138
2027,2078,2002,2031,1113
2038,2112,2022,2064,1088
2287,2121,2139,2164,1062
2198,2066,2063,2072,1035
1870,2013,2064,2037,1007
2208,2075,1910,2019,0978
2241,2061,1573,1927,0949
1848,2034,1888,2005,0918
2037,2059,2147,2085,0887
2260,2071,2469,2193,0855
1989,2108,2485,2207,0822
1917,2019,2248,2059,0790
2318,2129,2145,2108,0758
2013,2063,1871,2015,0726
1856,2079,1950,2070,0696
2184,1982,2023,1986,0665
2112,2033,2172,2039,0635
1853,2045,1976,2024,0606
2024,1955,1647,1861,0577
2165,2040,1874,1976,0549
1831,2027,1997,1997,0522
2079,2088,2014,2078,0495
2295,2046,1874,2029,0469
1957,2053,1985,2052,0443
1969,2087,2067,2093,0418
2241,2087,2257,2119,0393
2120,2075,2170,2066,0369
1883,2053,1886,1994,0345
2140,2095,2010,2077,0323
2145,2141,2161,2138,0302
1913,2092,2090,2074,0283
2139,2054,2108,2096,0265
2277,2071,2225,2089,0249
1967,2065,2469,2207,0235
2151,2149,2510,2227,0224
2290,2113,1926,2074,0215
1905,2119,1609,1993,0208
1824,2058,1779,2037,0203
2092,2017,2196,2099,0201
2037,2046,2332,2081,0200
1854,2060,2025,2035,0201
2119,2059,1791,2016,0202
2077,2017,1659,1918,0203
1863,1997,1768,1932,0206
2057,2035,1955,2020,0211
2197,2021,2281,2107,0217
1911,2055,2440,2115,0224
1953,2029,2293,2056,0233
2191,2064,1825,2031,0243
