603 645 643 643 0
851 862 854 850 0
995 990 984 984 0
1047 1060 1055 1058 0
1072 1082 1076 1083 0
1064 1060 1051 1059 0
989 992 984 990 0
862 866 859 865 0
657 649 644 649 0
105 7 18 28 0
102 6 18 28 0
107 6 17 21 0
104 7 18 23 0
109 8 20 22 0
112 12 23 24 0
110 13 18 23 0
113 13 25 23 0
111 14 29 35 0
113 14 30 34 0
117 14 31 34 0
113 14 31 37 0
115 14 33 40 0
113 14 31 39 0
110 13 30 39 0
114 9 28 37 0
111 7 43 43 0
114 7 40 46 0
115 6 38 39 0
111 5 38 38 0
114 6 38 42 0
111 5 37 38 0
111 6 38 41 0
113 5 38 41 0
109 5 40 41 0
113 5 40 41 0
111 7 24 36 0
109 8 23 33 0
113 8 24 31 0
109 10 26 35 0
113 10 26 35 0
112 9 27 39 0
112 8 24 32 0
116 9 25 32 0
111 8 23 43 0
114 8 24 44 0
116 8 23 44 0
112 7 22 44 0
116 7 22 44 0
113 5 19 41 0
113 5 20 38 0
114 7 16 35 0
111 6 18 35 0
115 6 17 35 0
114 6 16 22 0
109 6 15 20 0
112 6 15 19 0
107 9 14 16 0
109 9 15 19 0
109 8 17 24 0
105 8 16 26 0
109 8 18 35 0
105 8 18 41 0
104 8 19 42 0
106 8 18 41 0
102 7 18 42 0
106 7 18 41 0
104 5 18 43 0
104 6 21 41 0
108 6 20 36 0
104 5 21 36 0
103 10 21 32 0
102 10 20 25 0
102 10 20 24 0
105 10 20 24 0
102 10 20 25 0
103 10 20 24 0
103 11 20 21 0
103 11 14 22 0
106 10 12 25 0
104 10 11 25 0
107 9 20 28 0
110 9 19 30 0
107 9 20 30 0
114 10 20 32 0
112 10 21 30 0
113 10 21 30 0
117 8 21 31 0
111 7 22 30 0
117 9 22 27 0
116 9 22 25 0
115 7 13 22 0
119 7 13 20 0
117 9 14 23 0
118 11 27 24 0
119 11 27 24 0
115 11 27 24 0
119 11 30 28 0
116 11 29 28 0
114 10 30 31 0
118 10 28 30 0
113 11 28 30 0
116 11 29 31 0
114 8 29 28 0
112 6 16 24 0
115 7 15 26 0
110 7 17 26 0
110 8 12 19 0
110 12 13 24 0
106 12 13 23 0
110 12 13 24 0
109 12 18 24 0
107 13 14 22 0
109 14 14 22 0
107 14 14 22 0
112 16 17 25 0
112 21 18 25 0
110 23 27 32 0
117 22 26 29 0
112 22 25 26 0
115 22 27 27 0
114 25 29 38 0
109 27 35 49 0
117 28 38 51 0
114 31 38 51 0
110 31 40 47 0
109 27 39 48 0
109 21 30 38 0
105 14 27 32 0
103 16 27 35 0
102 16 28 37 0
107 17 27 33 0
106 18 25 25 0
104 20 27 26 0
100 16 27 26 0
102 16 20 34 0
102 11 14 33 0
100 10 14 36 0
105 10 14 36 0
105 10 14 36 0
103 9 14 36 0
107 9 14 36 0
105 9 15 33 0
108 8 16 33 0
110 7 13 33 0
107 7 13 29 0
112 6 12 26 0
109 7 16 20 0
108 9 16 19 0
114 16 26 38 0
116 20 26 38 0
114 20 30 42 0
112 19 29 42 0
114 18 29 42 0
116 15 27 40 0
111 14 25 39 0
117 11 21 36 0
117 10 22 36 0
113 9 20 32 0
115 8 17 24 0
107 10 19 25 0
115 14 19 24 0
115 17 23 26 0
108 18 20 27 0
115 19 25 33 0
114 18 25 32 0
109 17 23 27 0
111 17 33 40 0
109 14 32 39 0
112 15 31 39 0
111 16 31 39 0
106 16 31 39 0
115 18 44 50 0
115 18 44 52 0
109 19 42 48 0
111 22 43 48 0
120 25 42 45 0
120 24 42 41 0
115 24 41 41 0
112 30 36 39 0
122 38 50 48 0
128 47 59 54 0
123 51 60 58 0
121 56 64 65 0
133 55 64 63 0
129 50 60 57 0
106 33 55 50 0
116 21 44 47 0
117 12 41 46 0
114 13 27 24 0
115 15 32 30 0
108 14 32 30 0
119 21 42 39 0
119 27 44 39 0
107 28 41 37 0
120 28 40 37 0
120 26 27 34 0
114 23 28 34 0
119 21 25 33 0
119 19 25 32 0
121 17 25 32 0
118 9 15 18 0
120 9 11 17 0
128 13 14 20 0
132 28 26 31 0
123 41 37 43 0
126 43 38 45 0
133 44 40 50 0
132 43 38 50 0
124 41 37 48 0
130 39 35 46 0
131 34 31 40 0
119 28 29 35 0
120 30 31 36 0
115 28 29 35 0
127 21 24 27 0
128 18 23 27 0
114 12 16 17 0
122 13 16 14 0
122 13 22 21 0
112 12 20 23 0
118 12 28 27 0
118 15 28 42 0
120 15 29 43 0
120 14 32 42 0
115 15 31 43 0
124 19 32 42 0
124 21 32 43 0
123 21 32 44 0
125 21 22 41 0
121 23 30 40 0
128 26 31 36 0
126 29 34 25 0
118 34 38 28 0
129 37 37 31 0
131 38 38 33 0
119 33 33 29 0
115 25 24 24 0
112 22 17 18 0
119 23 40 38 0
116 24 41 38 0
114 24 43 38 0
116 24 42 39 0
119 22 41 37 0
118 21 39 36 0
113 16 34 33 0
117 13 32 30 0
123 15 32 31 0
125 16 33 35 0
123 15 17 17 0
120 14 16 17 0
118 15 11 17 0
127 17 15 19 0
121 18 17 22 0
117 21 20 26 0
120 25 23 30 0
118 25 24 30 0
116 23 25 29 0
107 20 25 25 0
110 14 25 19 0
108 15 25 17 0
104 15 25 16 1
105 15 30 16 1
105 14 30 16 1
111 14 30 15 1
114 13 32 14 1
110 14 29 14 1
116 14 32 15 1
116 14 34 15 1
123 20 31 22 2
126 18 31 23 2
121 18 45 24 2
126 18 59 24 2
127 18 60 24 3
120 17 64 27 3
122 19 74 29 3
120 19 76 29 4
120 18 74 28 4
121 20 74 29 4
110 17 80 25 5
116 15 84 23 5
115 14 79 19 5
106 17 52 15 6
116 20 34 18 6
116 20 52 18 7
116 20 54 19 7
115 20 56 19 7
108 21 54 19 8
122 23 57 18 8
118 23 57 19 9
123 21 54 18 9
123 20 56 21 10
121 20 53 21 10
121 16 52 17 11
116 16 53 18 11
116 15 56 17 12
121 15 59 21 12
121 13 58 21 13
117 10 59 21 13
117 11 67 24 14
117 10 99 25 15
124 12 110 24 15
120 11 116 31 16
116 17 159 33 16
120 21 220 33 17
127 25 270 35 18
121 31 271 34 18
116 32 271 38 19
121 30 280 44 20
121 28 289 46 21
113 26 279 46 22
111 27 322 56 23
111 24 365 64 24
118 30 353 59 25
123 30 319 63 26
118 31 259 58 26
126 28 227 58 27
125 27 225 58 28
114 28 253 64 29
122 28 288 80 30
118 28 298 85 31
120 30 245 79 32
128 43 167 55 33
133 50 149 54 34
123 49 147 57 35
110 46 147 64 36
123 41 187 61 37
123 39 228 65 38
147 78 283 126 39
145 98 262 125 41
155 110 247 129 42
173 115 242 125 43
177 111 342 136 44
166 106 437 150 45
171 105 523 157 46
173 104 554 158 47
170 106 548 158 48
175 106 521 157 49
160 95 477 123 51
171 81 466 117 52
177 71 459 117 53
169 67 495 133 55
171 66 550 145 56
189 105 536 133 57
194 170 429 174 59
299 246 458 280 60
501 426 644 483 61
552 549 799 604 62
686 695 1000 785 63
704 685 1110 793 64
720 677 1059 769 66
753 700 1022 769 67
778 668 897 707 68
764 644 734 659 69
786 700 786 726 71
896 959 1194 1025 72
1074 1092 1412 1170 73
1100 1047 1422 1145 74
938 899 1370 994 75
809 809 1145 868 77
921 841 1053 874 78
960 866 1023 884 79
672 681 811 685 80
547 405 543 377 81
447 311 601 322 82
803 652 1069 717 83
763 633 1086 694 84
760 628 1085 695 85
754 632 977 689 86
747 631 934 687 88
690 634 923 672 89
692 609 924 647 91
703 556 877 594 93
627 498 868 562 94
616 497 867 566 96
472 339 512 334 97
490 419 421 417 99
472 449 452 466 100
465 367 484 411 101
343 298 463 334 102
304 291 399 307 103
309 224 330 254 104
302 178 274 205 105
245 150 218 165 106
235 111 206 131 107
232 105 223 141 108
252 83 224 134 108
253 66 224 125 109
217 69 236 131 109
223 60 244 130 110
221 60 262 137 110
221 67 260 139 110
217 68 258 133 111
200 67 265 136 111
203 61 246 133 111
170 54 238 106 111
182 57 242 113 112
188 72 231 110 112
159 82 242 110 112
161 82 243 110 112
160 77 235 109 112
146 77 223 107 112
146 76 202 101 112
147 62 168 65 112
126 53 181 60 112
114 53 170 61 111
119 54 159 61 111
137 70 159 69 111
159 85 139 83 111
159 86 134 88 111
159 89 110 86 111
148 97 102 91 110
192 129 134 125 110
199 133 134 126 110
200 135 128 125 109
200 135 128 125 109
194 135 123 124 109
186 120 124 118 108
152 91 119 100 108
165 78 96 79 107
179 83 114 87 107
182 84 118 88 106
151 49 81 37 106
144 49 101 58 105
149 45 102 58 105
165 48 102 59 104
170 46 101 58 104
189 55 134 86 103
189 55 133 87 102
190 55 135 86 102
196 50 120 82 101
193 50 133 83 100
194 56 142 88 100
201 54 123 75 99
205 51 126 74 98
208 45 121 70 97
203 52 134 78 97
183 57 129 70 96
193 60 134 74 95
186 60 133 73 94
184 61 133 74 93
181 61 118 73 92
183 53 108 71 91
178 42 113 69 90
168 47 115 73 89
170 47 116 73 88
169 47 108 70 86
168 39 82 55 85
168 35 64 46 84
158 41 66 45 83
157 42 103 52 82
160 41 107 51 81
158 41 96 45 79
157 41 93 40 78
155 40 95 39 77
146 41 96 40 75
151 37 97 38 74
150 33 96 37 72
170 56 112 62 71
170 52 112 62 69
174 57 119 75 68
175 59 133 82 66
168 58 133 82 65
164 60 145 86 63
162 55 148 85 62
163 57 148 86 60
170 56 148 86 58
175 65 150 90 57
155 55 134 75 55
160 53 132 70 53
148 52 113 61 52
147 58 87 55 50
146 58 84 54 49
154 55 66 49 47
156 54 49 46 45
144 44 40 40 44
146 40 41 39 42
139 38 46 35 40
138 39 45 36 39
138 36 46 35 37
135 36 41 33 36
148 26 45 29 34
149 26 53 31 33
137 29 66 38 31
138 32 64 36 30
134 36 67 37 29
126 36 63 34 28
126 42 52 40 26
118 43 53 45 25
132 46 56 51 24
128 44 53 50 23
129 45 53 50 22
129 46 66 53 22
129 45 83 50 21
135 42 95 49 20
133 38 99 47 19
132 36 119 46 19
144 38 128 47 18
143 33 127 43 17
135 25 125 33 17
136 28 126 36 16
124 29 126 36 16
136 29 125 32 16
133 29 108 31 15
128 29 82 33 15
132 29 82 33 15
130 29 69 41 15
121 21 59 35 15
118 15 60 35 15
110 18 59 37 15
116 19 67 36 15
122 19 72 45 15
121 19 101 47 15
121 21 103 47 16
124 23 100 46 16
129 29 99 45 16
124 29 104 37 17
130 24 105 34 17
132 24 105 37 18
132 24 118 39 18
134 24 122 41 19
127 27 127 30 20
135 32 112 24 21
137 34 107 23 21
126 40 113 30 22
143 43 117 36 23
143 43 95 35 24
145 45 84 32 25
149 45 89 35 26
147 45 130 40 28
151 45 150 48 29
149 40 151 49 30
140 40 145 49 31
151 40 144 49 32
152 31 127 41 33
141 20 119 35 35
143 21 141 36 36
139 21 152 36 37
140 23 153 39 38
136 25 136 38 40
142 23 109 31 41
147 23 109 31 42
142 23 113 31 43
151 24 108 32 45
151 24 103 34 46
159 23 96 28 47
159 33 95 26 49
154 54 86 44 50
181 63 87 47 51
181 62 119 48 52
166 60 120 48 54
167 66 177 60 55
170 68 201 60 56
168 74 202 68 58
169 86 202 80 59
152 89 254 81 60
166 88 296 98 62
164 76 302 95 63
136 62 394 105 64
139 53 451 114 66
140 41 457 116 67
141 41 444 103 69
142 47 437 103 70
127 50 436 102 71
141 35 444 95 73
139 29 399 93 74
132 28 314 63 75
133 28 317 63 76
123 30 269 64 78
124 30 236 52 79
121 32 258 43 80
118 32 257 43 82
121 30 325 49 83
121 24 396 86 85
118 24 402 91 86
117 25 430 118 88
112 25 443 121 89
118 32 505 163 90
121 31 512 163 92
123 31 521 186 93
123 29 501 189 95
125 30 501 191 96
130 30 476 190 98
124 29 421 174 99
129 29 421 168 101
135 44 423 156 102
139 47 406 155 103
141 43 303 93 105
134 41 245 99 106
136 39 250 77 107
143 44 289 95 108
138 44 289 93 110
137 49 287 101 111
137 44 280 105 112
134 44 245 104 113
147 33 171 102 114
136 29 207 103 115
145 31 250 114 116
147 28 256 104 117
151 31 250 103 118
159 28 214 85 118
158 28 211 91 119
166 22 205 76 120
170 24 204 75 121
161 31 184 76 121
175 41 162 78 122
175 36 160 82 122
166 40 111 74 122
183 38 106 77 123
180 39 105 78 123
183 39 130 72 123
183 35 142 66 123
182 43 157 72 123
186 43 156 71 123
182 43 168 74 123
178 40 168 76 123
182 41 154 71 123
180 38 154 71 123
179 35 146 62 123
177 36 144 61 123
183 44 124 58 122
181 54 111 66 122
172 58 98 70 121
191 63 113 76 121
189 55 72 59 120
167 54 74 60 120
188 53 90 69 119
196 54 95 71 118
172 41 83 58 117
176 36 82 57 116
175 33 70 49 115
181 33 70 50 114
178 35 78 55 113
170 51 85 64 112
197 70 97 81 111
218 95 151 114 109
199 107 160 119 108
195 112 146 113 107
228 115 133 107 105
211 112 131 108 104
177 100 119 98 103
196 74 91 69 101
194 52 86 51 99
184 41 101 56 98
182 48 110 66 96
180 62 97 74 95
203 65 86 71 93
202 61 97 71 91
176 53 98 70 90
189 40 98 66 88
190 34 92 55 86
180 39 89 48 84
182 41 92 48 82
173 41 108 50 80
181 39 100 44 78
181 32 108 26 76
168 33 196 65 75
168 37 214 76 73
160 42 215 76 71
168 44 226 76 69
168 44 225 75 67
154 34 225 73 65
163 23 222 71 64
163 16 195 60 62
161 16 183 56 60
171 15 192 53 58
167 15 146 38 57
161 25 93 26 55
160 27 120 31 53
159 28 154 39 51
158 36 167 46 49
137 57 168 55 47
153 57 177 54 46
153 54 181 54 44
131 53 190 52 42
131 51 185 47 40
131 47 151 26 38
127 47 153 25 37
126 46 160 22 35
124 45 137 23 33
127 45 130 25 32
128 28 126 18 31
122 24 108 18 30
124 25 119 16 28
112 19 103 16 27
124 16 76 22 26
124 21 88 30 26
136 29 85 34 25
137 48 80 47 24
132 74 80 76 24
163 90 132 98 23
164 93 143 103 23
146 92 142 102 23
161 88 142 101 22
163 84 142 96 22
142 70 150 85 22
129 47 140 60 22
128 41 133 55 22
136 42 128 57 22
136 37 163 53 22
127 26 173 44 23
131 21 159 46 23
127 19 235 51 23
127 16 243 50 24
126 17 241 51 25
129 21 238 48 25
134 22 237 47 26
133 21 238 45 27
139 21 240 44 28
140 20 223 45 29
133 20 176 45 29
140 20 176 40 30
138 21 127 31 31
129 21 114 38 33
142 30 115 39 34
142 30 147 38 35
142 33 152 40 36
137 32 157 51 37
141 33 171 51 38
142 32 171 52 40
133 34 180 44 41
151 41 232 42 43
149 37 225 45 44
149 26 272 48 46
149 29 397 52 47
142 32 415 52 49
157 38 435 79 50
157 46 508 93 52
153 48 514 92 54
163 48 514 94 55
163 44 516 94 57
145 40 498 94 58
158 38 491 94 60
167 43 476 87 62
162 42 364 81 63
160 40 307 89 65
155 41 304 87 66
162 41 263 87 68
149 41 272 86 69
151 43 295 78 71
155 47 314 81 73
155 50 610 177 74
150 49 649 175 76
133 36 675 182 78
144 38 692 181 79
145 38 660 169 81
138 27 654 169 83
147 25 678 171 84
148 24 674 174 86
141 30 656 175 88
144 43 666 176 89
140 44 402 85 91
140 46 275 88 93
143 47 361 106 94
153 54 392 96 96
164 56 378 93 97
155 56 405 107 99
160 57 385 106 101
165 53 382 110 102
171 57 381 102 104
183 50 351 98 105
181 70 414 132 106
178 73 426 129 108
178 72 376 112 109
156 66 332 117 110
156 66 342 124 112
155 66 323 130 113
147 64 339 139 114
153 64 323 134 115
142 59 292 133 116
121 76 282 135 116
125 67 228 117 117
146 82 224 121 118
163 87 224 119 119
162 87 205 108 119
158 87 145 96 120
161 86 145 82 120
168 94 119 89 121
176 94 97 82 121
172 94 93 83 121
186 83 87 79 122
182 94 73 95 122
152 78 62 99 122
151 78 75 97 121
153 81 99 94 121
165 82 106 93 121
167 83 105 90 121
157 80 106 88 120
150 80 96 86 120
150 76 97 86 119
151 75 103 89 118
170 60 104 75 117
190 27 116 43 116
172 24 115 33 115
191 25 82 36 113
191 24 87 40 112
201 25 86 45 111
192 24 111 51 109
191 24 122 53 107
198 26 132 57 106
185 26 129 56 104
179 27 131 56 102
170 18 144 55 100
198 15 141 51 98
168 18 160 53 96
146 18 136 41 94
144 19 138 43 92
145 19 136 43 90
141 22 130 43 88
144 24 143 49 86
142 24 143 49 84
155 24 142 49 81
154 26 120 41 79
129 25 129 40 77
140 22 156 56 75
140 20 156 56 73
142 20 153 55 71
149 21 152 56 69
150 21 161 58 67
149 15 153 51 65
152 17 177 60 63
153 23 192 67 61
164 25 185 65 60
157 21 179 66 58
163 21 142 47 56
166 21 112 40 54
155 22 113 35 52
156 30 142 50 50
152 45 168 64 48
173 56 180 74 46
169 57 152 67 44
152 48 116 53 42
158 48 108 52 41
159 44 109 46 39
152 42 116 53 37
153 48 120 65 36
150 52 123 66 34
148 53 113 74 32
147 49 86 70 31
123 40 46 67 29
131 36 46 66 28
131 33 54 65 26
116 33 60 66 25
117 35 70 66 23
109 35 113 63 22
116 30 127 49 21
116 29 126 50 20
122 23 129 36 18
126 23 135 35 17
118 20 142 27 17
120 20 142 28 16
121 22 138 32 15
126 20 132 32 14
134 19 136 33 14
130 20 128 30 13
138 23 102 37 13
137 19 158 44 13
131 20 208 41 13
141 19 211 41 12
139 21 212 52 12
141 22 242 58 12
142 24 261 60 13
133 27 259 60 13
137 26 258 62 13
136 26 246 65 13
131 21 247 62 13
136 17 228 52 14
131 17 206 52 14
129 13 211 52 15
129 17 206 45 15
126 17 177 42 16
132 16 169 35 17
134 10 174 31 18
128 14 175 39 19
131 15 178 36 20
126 15 188 37 21
131 17 186 39 22
129 26 180 39 23
124 26 166 39 24
126 27 169 40 26
119 30 165 35 27
128 30 166 35 28
125 31 163 38 30
130 29 190 37 31
132 29 199 36 33
128 29 185 34 35
127 28 179 31 36
126 23 169 36 38
127 28 170 37 40
140 34 227 46 42
141 34 227 46 43
129 39 192 44 45
136 39 192 39 47
135 36 194 44 49
144 33 193 46 51
140 36 214 80 53
137 47 221 85 55
147 48 270 85 57
147 49 298 91 59
146 48 258 89 61
142 44 388 107 63
151 36 422 106 65
145 35 427 97 67
134 47 491 102 69
140 51 529 111 71
151 57 524 98 73
186 79 522 106 75
180 94 516 122 77
172 101 538 167 79
174 102 533 164 80
175 102 534 185 82
158 101 482 176 84
160 99 482 175 86
157 81 452 175 87
155 77 451 193 89
152 81 459 206 91
111 76 469 202 93
125 64 493 208 94
126 52 437 163 96
123 55 440 168 97
130 55 320 134 99
134 67 347 155 100
137 67 339 153 102
139 70 351 155 103
127 65 314 142 104
147 65 262 124 105
147 63 260 123 107
160 67 200 102 108
161 70 200 102 109
159 64 201 102 110
163 65 198 105 111
160 40 90 49 111
157 44 114 66 112
168 51 105 99 113
166 54 98 107 113
146 81 104 123 114
146 84 90 119 114
134 85 91 122 115
141 77 91 121 115
131 78 83 110 115
127 78 71 98 115
130 76 75 94 115
129 79 73 99 115
121 77 71 89 115
119 76 74 87 115
134 35 63 49 114
140 34 61 49 114
125 16 59 25 113
145 10 59 12 112
147 13 56 14 111
146 13 64 14 111
152 13 79 22 110
151 12 81 27 108
144 13 83 38 107
146 13 88 37 106
145 10 81 37 105
161 13 82 38 103
161 12 119 40 102
140 16 155 50 100
148 23 163 62 99
148 23 161 62 97
148 23 153 56 96
147 23 154 55 94
160 23 153 52 92
160 25 151 54 90
147 25 157 58 88
152 25 164 58 87
151 27 146 55 85
155 25 92 40 83
158 16 88 29 81
156 16 93 36 79
166 18 123 46 77
170 18 201 58 75
158 26 226 64 73
173 25 220 62 71
171 29 218 62 69
162 31 213 62 67
170 28 214 63 66
166 32 218 63 64
166 32 216 64 63
164 33 207 58 61
151 34 204 52 60
152 37 139 38 58
153 30 57 21 57
145 29 69 21 55
144 29 69 22 53
143 27 74 22 51
143 25 73 22 50
141 24 93 29 48
145 25 112 32 46
152 31 115 33 45
153 30 110 36 43
150 27 99 38 42
146 27 91 37 40
152 27 99 37 39
157 23 104 33 37
148 23 104 33 36
144 32 104 34 34
145 32 90 27 33
137 30 54 20 32
138 26 62 23 30
133 27 65 25 29
138 28 68 26 28
140 29 112 26 27
127 33 154 21 26
127 33 152 20 25
124 33 169 27 24
128 26 205 33 23
128 26 212 33 22
120 26 229 35 21
119 26 248 35 20
118 24 261 33 20
115 17 259 29 19
118 20 260 30 19
114 17 248 31 19
137 17 247 34 18
137 17 236 30 18
132 17 200 21 18
137 16 209 34 18
136 19 225 40 18
135 21 186 40 18
135 22 148 40 18
130 22 154 41 19
140 23 153 41 19
138 19 150 41 19
116 16 153 37 20
119 17 177 31 20
119 17 177 32 21
124 26 149 31 22
124 26 103 35 23
125 27 99 34 24
129 28 100 35 25
125 32 103 36 26
122 32 105 38 28
122 36 87 32 29
135 37 106 33 31
139 33 130 41 32
132 30 135 41 34
140 30 157 41 35
143 28 160 34 37
136 15 158 34 39
146 19 221 58 41
145 20 221 59 42
146 29 209 61 44
148 27 221 64 46
134 29 234 62 48
152 30 220 63 50
152 28 248 80 52
141 27 238 81 54
149 20 224 83 56
148 19 237 84 58
146 19 204 66 60
147 22 220 66 62
138 19 241 65 64
149 19 313 60 66
149 23 295 60 68
156 48 298 41 70
156 50 285 29 72
146 49 287 36 74
159 49 271 38 75
159 51 245 48 77
150 50 241 48 79
152 46 240 48 81
152 48 236 64 83
149 48 119 67 84
149 50 118 71 86
127 36 117 70 88
143 29 117 71 89
143 30 104 68 91
142 37 162 96 92
144 37 173 98 94
142 36 176 104 95
151 35 176 105 96
151 31 174 97 98
147 31 173 94 99
153 39 168 85 100
151 32 161 85 101
146 44 159 84 102
147 43 155 85 103
137 40 128 67 104
141 54 95 60 105
146 84 96 62 106
138 89 98 64 106
141 89 104 66 107
154 98 107 83 108
149 89 95 86 108
147 89 93 85 109
143 92 89 86 109
147 90 75 77 110
133 91 76 80 110
144 69 68 74 110
138 55 67 73 110
143 53 67 73 110
145 54 67 74 110
123 48 63 70 110
133 44 67 67 110
132 43 63 64 110
132 39 59 57 109
139 39 60 58 109
138 28 45 44 108
136 23 46 35 108
138 22 50 35 107
137 23 62 42 106
135 23 63 43 105
133 20 65 43 104
140 20 64 43 103
145 21 67 45 102
139 21 70 45 101
138 21 71 49 99
138 21 70 48 98
130 19 66 44 97
133 19 64 42 95
128 14 85 41 94
141 17 89 40 92
141 20 94 47 90
124 21 125 55 88
136 23 125 53 86
137 25 124 52 84
131 29 126 52 82
136 28 143 61 80
135 28 143 61 78
145 28 147 63 76
143 33 129 60 74
143 33 120 60 72
148 32 145 64 70
146 32 157 62 68
137 31 154 64 66
136 27 160 64 64
143 19 165 61 62
145 16 139 41 60
136 17 129 31 58
137 24 137 41 56
141 35 163 65 54
140 42 171 76 52
141 43 157 75 50
140 50 110 71 48
144 47 106 69 46
149 45 112 70 44
144 44 111 71 42
143 46 115 74 41
141 53 115 81 39
134 52 115 89 37
138 46 86 79 36
124 39 66 72 34
125 33 51 68 33
127 29 57 69 31
130 33 60 73 30
133 33 60 72 29
126 33 57 72 27
129 32 52 65 26
132 22 44 46 25
128 23 35 34 24
129 26 34 35 22
128 26 49 35 21
140 30 73 43 20
137 28 86 44 20
123 18 86 32 19
128 17 131 38 18
128 17 152 38 17
126 17 152 36 17
128 17 164 35 16
127 18 208 34 16
138 20 212 38 15
139 20 212 38 15
128 18 236 34 15
137 15 238 28 15
136 12 238 28 15
135 14 221 23 15
138 13 221 28 15
132 14 244 32 15
136 18 233 28 15
133 29 173 25 15
140 30 176 25 15
141 31 177 24 16
133 34 159 36 16
146 35 162 46 17
146 35 162 45 17
133 28 161 42 18
135 22 156 46 19
134 27 147 46 20
143 35 148 45 21
143 35 149 56 23
131 38 160 56 24
139 40 221 56 25
139 38 259 55 27
126 37 260 43 28
134 37 297 53 30
136 37 308 53 32
145 37 307 54 34
145 35 295 57 35
143 36 310 67 37
151 36 327 65 39
143 32 372 67 41
152 28 322 65 43
152 25 242 52 45
146 35 240 53 47
149 37 234 51 49
150 37 238 56 51
174 48 321 93 53
175 50 360 109 56
169 49 362 108 58
166 47 372 128 60
167 50 364 146 62
176 52 409 151 64
178 53 406 150 66
176 49 417 150 68
184 49 434 150 70
182 49 454 148 73
158 35 420 130 75
158 31 383 112 77
154 42 375 106 79
173 58 371 117 81
169 54 315 90 83
145 51 401 98 86
151 50 475 133 88
150 53 482 141 90
131 52 576 175 92
137 58 583 177 94
133 58 610 187 96
140 59 627 189 97
140 58 627 188 99
123 50 615 178 101
126 62 612 176 103
118 76 541 170 104
119 74 482 145 106
119 73 469 138 107
126 72 285 75 108
119 66 156 46 110
115 65 126 41 111
127 72 69 32 112
124 78 81 32 113
120 85 67 35 114
141 70 58 49 115
141 63 53 53 116
151 65 58 53 117
151 93 83 120 118
145 97 80 153 119
170 106 85 191 119
168 110 88 197 119
158 98 85 194 119
161 98 92 191 119
160 86 127 191 119
147 88 131 184 119
141 87 146 172 119
130 90 172 169 119
149 75 171 160 118
162 76 177 151 118
130 58 179 95 117
125 39 177 60 116
134 35 180 53 115
135 34 179 50 114
134 36 157 55 112
137 28 150 48 111
137 24 137 50 110
138 28 87 47 108
136 26 65 48 107
126 26 87 52 105
135 29 105 61 103
141 31 107 60 101
128 32 149 74 99
136 32 154 76 97
136 30 150 71 95
131 30 152 71 93
138 32 160 72 91
141 35 169 82 89
138 35 173 81 87
151 36 180 78 84
155 30 165 64 82
162 22 166 65 80
159 22 156 53 78
164 22 153 52 75
170 21 155 50 73
161 21 154 50 71
164 27 148 47 69
169 26 134 24 66
164 26 134 24 64
160 25 116 28 62
152 26 117 27 60
147 26 117 25 58
146 27 105 28 56
131 31 106 28 54
134 30 108 28 52
134 42 112 36 50
141 38 113 35 48
132 44 106 39 46
130 45 86 40 44
140 46 83 38 42
141 51 72 39 41
153 58 81 45 39
154 60 76 43 37
151 62 82 46 35
153 62 74 46 33
153 58 60 42 32
138 59 62 43 30
153 47 67 37 28
154 39 66 33 27
157 35 78 42 25
157 35 97 42 24
141 29 102 36 23
143 33 97 44 21
144 38 104 53 20
149 37 122 55 19
148 38 121 53 18
143 42 117 53 17
144 42 130 55 17
145 40 161 55 16
128 31 149 46 16
133 26 153 49 15
133 55 165 67 15
139 55 183 64 14
137 53 216 61 14
119 63 214 66 14
120 61 227 65 14
122 55 271 66 14
108 52 280 60 14
108 52 270 56 14
102 52 274 57 14
97 50 278 57 15
96 41 277 48 15
97 41 253 42 15
97 41 215 30 16
99 26 274 33 17
109 20 286 37 18
106 19 263 36 19
100 18 268 40 20
112 19 267 39 21
111 21 257 37 22
121 30 249 38 24
121 34 259 53 25
121 41 280 56 27
126 47 277 62 29
123 47 183 59 31
131 48 207 57 33
133 53 253 61 35
128 52 287 61 37
135 53 321 66 39
136 60 400 89 41
146 69 394 95 44
146 87 402 82 46
138 83 413 85 48
144 78 375 75 50
145 80 358 89 53
127 78 356 88 55
136 67 395 93 57
143 65 412 114 59
124 64 393 114 62
126 64 304 106 64
120 62 299 104 66
139 53 294 113 69
142 59 263 114 71
138 59 277 112 73
144 56 228 96 75
143 55 212 95 78
140 52 189 94 80
130 41 296 109 82
141 42 326 110 84
145 49 335 121 86
131 52 347 131 88
134 60 384 141 90
133 55 407 138 92
137 62 397 141 94
168 92 397 137 96
172 90 426 142 98
171 100 427 142 100
171 109 356 118 102
168 109 319 117 103
173 104 318 110 105
169 107 331 119 106
161 114 277 98 108
172 114 253 110 109
168 110 257 108 111
144 90 257 108 112
137 91 214 105 114
148 84 215 112 115
150 77 215 116 116
138 67 215 117 117
150 70 208 114 118
156 80 136 76 119
151 75 119 73 120
144 87 108 85 121
155 94 97 89 121
182 114 119 135 122
182 131 129 165 122
167 129 120 167 122
180 128 111 154 122
180 123 111 153 122
172 113 107 145 122
177 114 108 146 122
178 112 105 132 122
197 112 101 140 121
181 84 85 119 121
157 79 84 111 120
186 65 72 82 120
187 34 68 53 119
173 37 73 50 118
180 44 91 53 117
177 43 87 53 115
162 42 87 54 114
158 62 85 67 113
155 62 85 65 111
159 61 68 63 110
153 62 74 60 108
140 60 74 61 106
140 60 79 60 105
157 59 81 58 103
156 45 70 39 101
147 43 69 39 99
165 46 78 40 96
164 31 97 37 94
152 31 91 36 92
156 31 91 36 90
155 32 88 39 87
148 32 108 46 85
152 32 114 47 83
150 33 114 47 80
142 28 126 47 78
140 29 126 49 75
144 21 112 51 73
161 23 118 38 70
156 27 166 55 68
161 29 181 71 65
163 35 183 78 63
166 38 173 76 61
164 48 173 78 59
159 53 170 78 57
168 53 154 80 55
168 54 164 90 53
148 64 179 101 51
144 64 166 100 49
144 63 127 94 47
142 64 99 81 45
142 61 64 64 43
133 59 90 71 41
144 58 103 71 39
137 54 106 68 38
129 55 108 68 36
136 51 112 60 34
140 27 120 38 32
138 27 131 46 31
139 27 125 46 29
129 29 111 47 28
135 29 110 44 27
131 26 122 43 25
127 30 124 45 24
134 40 124 46 23
142 49 133 53 23
135 62 137 63 22
130 61 111 59 21
136 54 71 41 20
140 53 47 39 20
135 52 69 38 19
138 45 89 39 19
135 41 90 33 19
131 42 88 37 18
132 43 98 40 18
120 42 112 40 18
145 31 156 31 18
143 21 216 24 18
136 17 237 20 18
145 25 234 20 18
143 27 214 19 18
139 27 176 19 18
141 24 176 14 19
141 24 236 34 19
144 24 289 35 19
142 28 290 36 20
131 28 288 47 21
134 27 252 48 21
125 27 231 49 22
112 21 232 51 23
116 18 282 66 24
114 20 330 66 25
115 26 334 67 27
109 25 307 59 28
112 32 265 64 29
111 31 264 61 31
123 54 264 67 33
125 55 302 69 35
123 56 305 69 37
129 58 285 68 39
127 58 272 59 41
122 62 262 58 43
135 60 261 63 45
135 62 366 89 48
148 51 430 85 50
149 51 433 101 52
134 60 564 155 55
149 70 630 170 57
149 76 626 172 59
140 78 617 169 62
146 79 627 165 64
145 74 622 165 66
141 69 621 161 69
140 59 554 127 71
125 59 450 121 73
137 60 501 145 75
137 56 403 109 77
134 49 247 81 80
142 42 266 74 82
141 42 262 71 84
156 42 247 72 86
156 43 249 83 88
142 44 294 117 90
157 43 284 114 92
155 60 279 117 94
162 61 234 99 95
163 62 264 99 97
152 73 254 105 99
158 73 267 114 101
157 74 264 116 102
151 72 253 118 104
152 79 254 119 105
155 82 226 96 107
146 81 225 97 108
142 70 218 94 109
143 67 216 94 111
147 67 132 76 112
152 60 132 71 113
160 61 107 61 114
159 57 73 52 115
174 70 80 96 116
189 58 73 103 117
184 59 72 100 118
182 63 83 111 119
186 71 87 127 119
182 78 91 142 120
188 79 90 151 120
184 81 87 150 120
177 81 85 148 121
180 79 85 143 121
154 54 46 76 121
156 54 46 81 120
157 45 41 83 120
166 62 61 102 120
171 58 57 98 119
158 50 47 81 119
154 50 54 60 118
155 55 62 59 117
147 53 64 59 116
152 50 65 57 115
148 55 69 63 114
139 54 71 63 113
147 55 75 62 111
147 48 66 49 110
131 50 71 51 108
130 51 79 55 106
140 46 75 50 105
147 34 74 44 103
142 32 90 47 101
151 30 92 48 99
151 16 106 49 97
148 20 159 65 94
145 23 188 75 92
134 23 200 87 90
150 21 203 87 87
153 33 214 101 85
133 34 214 101 82
161 41 214 102 80
164 37 198 97 78
150 35 191 95 75
152 37 219 100 73
149 40 214 97 70
160 48 181 92 68
158 47 183 83 66
157 46 214 82 63
163 42 219 65 61
160 40 223 62 59
142 30 226 57 56
136 30 236 57 54
142 30 236 56 52
141 33 224 54 50
137 34 204 50 48
127 33 189 48 46
127 35 191 46 44
125 37 173 45 42
132 34 154 47 40
131 34 139 43 38
136 27 137 39 36
138 27 116 36 34
124 23 106 33 33
133 23 98 34 31
132 22 75 33 29
136 20 61 26 27
137 16 63 23 26
133 12 70 24 24
137 13 76 18 22
137 16 70 23 21
129 16 68 28 20
137 14 70 27 19
140 17 70 27 17
130 32 88 26 16
134 40 118 30 16
134 42 106 33 15
135 41 112 35 14
128 37 129 31 14
135 34 134 25 14
136 32 154 27 13
127 28 178 30 13
128 25 193 26 13
126 30 196 33 13
129 34 208 47 13
127 38 186 49 13
121 38 185 50 14
135 40 199 47 14
135 34 199 48 14
117 31 275 53 15
131 28 310 51 15
129 24 294 43 16
123 23 281 37 17
125 22 292 38 18
120 22 290 37 19
128 23 291 39 20
124 24 273 42 21
113 25 270 44 23
114 27 267 44 24
114 29 246 44 26
115 29 239 46 27
115 26 268 46 29
112 35 267 57 31
121 37 247 53 33
125 40 242 52 35
122 39 246 52 37
123 37 243 51 39
124 40 285 53 41
142 47 312 55 43
137 50 315 58 45
129 50 357 58 47
135 53 342 56 49
135 46 375 57 52
139 46 387 59 54
131 42 388 59 56
143 41 406 59 58
138 42 409 59 60
124 46 373 65 62
135 45 356 64 65
135 44 357 59 67
131 44 281 44 69
141 44 258 43 71
141 43 225 52 73
143 33 200 53 75
143 46 184 54 77
134 48 155 54 80
151 46 187 53 82
151 42 184 46 84
133 41 189 46 86
138 44 222 86 88
139 47 221 85 90
123 48 215 90 92
121 42 204 88 94
112 42 271 86 96
123 37 268 91 98
118 37 270 91 99
118 38 241 92 101
121 49 241 96 103
117 57 216 98 105
127 56 195 83 107
126 55 192 86 108
127 52 198 91 110
132 52 246 107 111
131 56 229 123 113
135 56 228 120 114
133 56 229 120 116
129 57 231 121 117
135 43 228 118 118
140 41 230 121 119
136 41 220 110 120
141 44 216 109 122
146 46 188 90 123
152 46 162 80 123
145 42 69 54 124
155 42 69 54 125
159 44 62 56 125
159 41 59 46 126
166 31 50 38 126
165 55 67 53 126
166 55 64 62 126
160 65 74 84 126
151 62 72 85 126
152 62 81 87 126
155 63 82 88 126
154 60 82 85 126
155 63 110 100 125
152 63 110 100 125
153 60 116 95 124
154 50 138 96 123
161 51 145 95 123
169 34 145 83 122
169 32 148 79 121
159 34 145 79 120
172 35 148 83 119
181 36 151 82 117
176 31 132 66 116
168 31 132 66 115
171 28 125 59 113
169 25 77 41 112
157 23 37 31 110
157 23 44 29 108
159 25 45 29 106
169 23 83 45 105
159 23 106 46 103
137 18 129 48 101
148 15 126 47 98
150 22 132 56 96
138 22 133 58 94
149 22 134 60 92
144 20 147 60 89
147 20 175 62 87
153 22 176 62 85
151 23 169 56 82
149 20 169 54 80
142 21 139 42 77
144 22 135 42 75
142 16 155 45 72
127 23 210 55 70
131 24 227 69 67
131 28 217 68 65
138 39 190 68 63
135 48 202 83 60
130 47 215 86 58
144 47 217 86 56
145 48 217 86 54
142 47 214 85 53
147 48 206 83 51
146 44 148 75 49
135 42 84 51 47
140 36 83 42 45
122 36 83 43 43
128 22 85 31 41
128 21 100 33 39
126 23 155 32 37
127 24 178 32 35
119 24 179 27 34
122 27 179 28 32
123 27 180 29 30
120 27 181 31 29
117 26 173 27 27
116 22 161 29 26
117 22 140 22 25
120 23 140 24 24
116 24 100 25 23
119 26 58 25 22
118 27 94 32 21
121 23 125 31 21
121 22 127 30 20
114 20 127 26 20
121 14 120 18 19
123 19 118 18 19
127 23 145 19 19
129 23 170 35 19
124 22 207 45 19
123 21 261 45 19
124 24 266 38 19
128 24 244 39 19
133 20 237 39 19
134 22 249 40 20
131 27 258 47 20
133 40 294 45 21
146 48 265 48 22
150 47 264 46 23
144 44 274 45 24
161 46 272 56 26
164 48 265 55 27
154 53 285 76 28
156 54 373 90 30
154 54 392 90 31
155 55 386 88 33
159 49 369 88 35
141 44 389 99 37
148 44 388 100 39
148 48 380 102 41
125 47 416 111 44
133 50 468 125 46
128 46 468 116 48
141 46 437 113 51
145 47 442 113 53
144 58 443 129 56
133 65 488 144 58
134 68 443 125 60
131 71 453 117 63
135 66 454 117 65
135 63 426 112 68
138 64 382 111 70
139 66 396 113 72
113 66 358 95 75
116 66 287 97 77
114 69 327 128 79
135 68 340 125 81
131 74 325 126 84
130 74 363 149 86
137 75 475 191 88
133 75 476 192 90
139 75 485 202 92
142 79 481 203 94
150 67 499 207 96
152 62 507 205 98
152 66 497 191 100
143 64 440 177 101
152 49 403 172 103
143 48 408 174 105
147 45 305 136 106
149 46 308 136 107
140 48 278 124 109
140 41 263 117 110
130 48 237 112 112
130 48 217 108 113
135 41 201 99 114
135 43 191 97 115
130 41 191 96 116
132 56 111 68 117
118 89 123 89 118
131 88 109 82 119
125 85 90 71 120
129 84 90 71 120
141 103 96 117 121
134 105 96 136 121
157 111 96 158 121
153 111 103 153 121
163 111 107 147 121
165 108 105 147 121
170 71 130 121 121
181 70 132 121 121
182 76 131 121 121
180 78 140 125 120
188 63 141 121 120
191 61 141 108 119
171 36 143 69 118
168 35 135 60 117
162 35 130 60 116
160 24 132 57 115
149 21 75 37 113
144 23 47 38 112
146 21 60 38 110
148 22 60 40 109
135 22 96 44 107
131 22 116 44 105
128 23 116 50 104
136 22 122 51 102
141 21 122 55 100
144 22 124 59 97
141 23 125 59 95
129 22 123 59 93
128 22 103 56 91
127 21 104 55 88
126 20 121 52 86
126 19 107 51 83
141 25 114 50 81
129 21 109 46 78
114 20 109 43 75
130 21 100 37 73
129 22 106 38 70
128 22 114 35 67
130 27 113 36 65
128 29 124 38 62
147 28 115 32 59
147 31 95 40 57
135 26 148 48 54
160 26 176 55 52
161 25 177 54 50
151 22 183 54 48
151 25 182 53 46
146 30 183 53 44
152 30 186 53 42
151 32 181 57 40
129 38 159 60 38
137 38 162 57 36
136 37 169 48 35
128 33 151 37 33
129 44 149 39 31
117 63 157 51 30
139 70 153 65 28
139 69 167 74 27
139 69 179 72 25
142 68 178 74 24
143 63 232 80 23
141 57 268 83 22
134 52 253 83 22
125 52 247 85 21
131 50 252 84 21
133 38 247 80 21
130 30 246 69 21
130 30 298 68 21
123 27 420 88 21
124 25 420 82 21
122 23 457 93 21
125 25 524 100 22
126 27 517 101 22
124 28 526 101 23
126 27 530 101 24
124 20 530 102 25
115 23 533 102 26
129 22 504 95 27
130 22 383 73 28
134 25 378 73 30
133 25 332 59 31
124 26 208 56 33
127 24 224 56 35
118 28 202 50 37
124 31 228 55 38
125 33 221 59 40
114 24 230 65 42
111 27 230 66 44
106 26 228 66 46
110 28 231 75 49
110 31 230 74 51
113 31 212 67 53
123 35 193 73 55
125 32 191 82 57
129 28 146 81 60
142 19 167 88 62
143 30 159 82 65
142 31 146 82 67
140 30 254 98 69
140 36 256 107 72
139 61 354 109 74
129 61 490 149 77
146 65 597 156 79
148 67 629 149 82
141 67 653 149 84
136 71 635 139 87
136 75 659 150 89
154 80 781 158 92
155 82 761 140 94
152 90 785 150 96
170 82 834 160 98
170 86 815 128 100
149 90 704 97 102
157 88 625 116 104
153 91 526 137 106
155 98 473 156 108
154 96 511 154 109
155 96 477 153 111
156 95 448 149 112
144 88 420 136 114
136 76 332 118 115
139 62 156 70 117
146 79 181 82 118
141 84 191 83 120
141 92 199 84 121
165 95 179 69 122
165 91 152 68 123
134 84 102 57 124
134 96 126 97 125
135 88 121 97 126
136 86 108 99 126
136 86 110 105 126
129 93 101 107 127
152 106 104 116 127
150 100 97 109 127
119 91 88 93 127
125 90 88 90 126
127 89 85 87 126
144 84 71 72 126
144 88 70 82 125
148 87 78 82 125
149 84 82 78 124
148 65 74 69 123
161 59 73 64 122
160 58 75 60 121
160 55 54 59 120
157 56 68 59 119
163 56 80 57 118
178 59 82 59 117
180 63 95 61 115
168 66 85 61 113
181 66 72 61 112
177 53 74 56 110
136 41 80 39 108
142 41 116 66 106
142 39 160 74 104
152 41 169 74 102
151 41 168 80 99
130 42 172 88 97
152 26 167 88 95
154 22 175 85 92
137 25 184 93 90
133 26 166 86 87
136 26 155 84 85
128 31 153 77 82
124 33 150 74 79
131 33 145 74 77
140 32 173 72 74
140 34 188 64 71
149 36 175 49 69
149 32 211 50 66
152 32 255 47 64
161 31 259 53 61
158 31 246 54 58
157 26 250 58 56
162 24 241 55 54
154 25 237 55 51
150 25 211 46 49
150 25 176 59 47
138 26 178 58 44
143 27 187 59 42
133 31 138 58 40
134 31 124 55 38
136 32 127 53 36
140 31 113 46 34
135 31 102 46 32
132 29 107 47 31
140 29 145 48 29
142 21 148 22 27
139 26 148 24 26
141 26 127 21 25
140 26 119 22 23
139 27 137 27 22
142 28 137 28 21
129 28 164 34 20
133 27 170 31 19
135 36 180 38 19
134 48 162 47 18
132 65 194 84 18
117 63 201 91 18
136 58 208 93 18
138 55 218 94 18
129 54 193 91 18
131 56 188 91 18
132 56 195 91 18
130 57 189 91 18
131 62 186 91 19
121 61 191 89 19
133 47 142 64 20
134 36 128 42 21
117 27 155 44 22
130 33 158 45 23
125 27 176 46 24
122 29 181 51 26
127 29 183 51 27
132 31 198 51 29
131 40 194 49 31
127 44 175 49 33
135 45 175 46 35
134 41 179 46 37
113 42 202 44 39
120 44 206 41 41
122 51 189 46 44
141 67 356 38 46
139 80 408 35 48
129 78 399 55 51
138 71 400 57 53
139 65 425 58 56
125 71 478 81 59
143 75 527 101 61
145 69 618 114 64
118 86 617 116 66
117 90 622 121 69
115 89 599 129 71
126 88 565 131 73
127 90 565 132 76
141 88 592 135 78
150 88 593 136 80
148 85 562 127 83
139 82 516 110 85
140 82 383 87 87
158 69 374 100 89
160 68 376 105 91
145 57 317 102 94
152 55 318 112 95
154 56 324 117 97
131 56 284 116 99
138 48 272 113 101
137 51 257 118 103
143 50 240 115 104
141 55 195 114 106
132 38 182 91 107
134 35 129 59 109
135 39 128 59 110
145 39 124 62 111
143 63 109 62 113
143 63 110 59 114
150 77 112 61 115
150 73 94 51 116
144 72 76 48 117
146 65 68 46 118
141 74 72 58 119
142 72 71 69 120
142 72 64 74 120
147 74 67 82 121
152 69 68 83 121
149 71 76 84 121
141 61 76 84 121
141 64 82 84 121
135 65 81 84 121
144 66 87 83 121
141 58 80 69 121
140 50 76 63 120
140 51 78 55 120
113 36 77 39 120
128 44 82 47 119
126 45 82 53 118
118 48 82 61 117
139 47 80 60 116
150 49 79 57 115
129 49 62 55 114
126 45 48 55 112
126 41 33 51 111
146 34 33 51 109
147 35 33 51 108
143 31 35 44 106
149 31 46 37 104
144 26 54 19 102
143 24 56 24 100
132 19 56 24 98
142 16 54 23 96
146 16 83 33 94
141 14 82 32 92
142 14 82 32 89
142 14 89 36 87
140 12 104 37 84
146 12 106 38 82
146 10 103 38 79
125 14 103 38 76
138 33 106 44 74
150 36 110 46 71
140 35 89 42 68
139 37 85 46 65
137 40 90 49 63
146 42 91 48 60
141 44 92 50 57
140 47 94 51 55
139 48 98 51 52
163 49 129 49 49
150 32 163 45 47
127 15 160 41 44
145 7 164 40 42
145 8 165 40 39
149 13 163 40 37
148 30 160 40 34
145 35 154 40 32
154 36 160 40 30
156 37 161 42 28
145 34 134 41 25
147 33 75 37 23
146 30 72 33 21
131 31 70 39 19
134 27 71 34 18
122 25 91 29 16
138 27 110 28 14
139 26 109 32 13
141 28 119 33 12
140 29 128 34 11
131 31 163 53 10
145 31 211 61 9
145 32 209 60 9
141 29 226 68 9
150 39 247 77 9
149 43 244 76 9
152 50 239 80 9
154 63 252 85 9
137 63 253 88 9
151 60 261 86 10
151 52 232 65 10
146 51 154 46 11
148 53 126 49 12
146 53 223 59 12
132 54 241 54 13
132 55 273 54 15
133 55 289 51 16
137 49 285 42 17
140 51 284 42 18
137 53 268 41 20
143 56 291 41 21
132 53 290 39 23
135 51 320 45 25
134 51 337 33 26
142 54 332 33 28
142 56 304 37 30
115 51 270 40 32
128 52 274 49 34
129 52 270 44 36
123 58 269 44 39
118 56 225 44 41
111 50 375 81 44
133 62 452 77 46
135 62 433 75 49
126 73 491 81 51
144 69 517 93 54
143 67 513 97 57
141 65 493 90 59
143 71 553 98 62
139 65 642 121 65
160 65 645 121 67
160 65 605 119 70
140 53 550 140 72
148 52 513 139 74
152 42 487 139 77
136 45 488 133 79
131 45 501 133 81
147 45 508 136 84
153 47 468 131 86
150 50 356 98 88
161 48 369 127 90
168 56 337 128 92
172 60 356 135 94
172 66 405 153 96
167 68 423 165 98
182 71 420 166 99
182 83 395 165 101
158 81 384 165 103
178 76 383 161 104
178 60 354 153 106
166 33 188 65 107
167 51 154 67 109
165 63 157 69 110
166 68 112 62 111
166 68 91 52 112
167 70 76 53 113
176 66 81 48 115
179 77 96 73 116
168 67 89 84 117
169 61 70 79 117
166 76 70 85 118
163 75 74 85 119
159 74 71 84 120
152 77 81 94 120
151 81 87 110 120
126 80 82 111 121
139 90 90 126 121
137 90 88 127 121
140 95 90 128 121
140 98 95 133 121
127 83 94 130 121
170 104 108 154 120
168 109 114 160 120
165 112 115 158 120
172 110 108 147 119
171 97 97 132 118
157 69 68 87 118
153 39 62 54 117
179 38 61 52 116
183 41 84 59 115
180 39 102 63 114
165 28 102 45 113
177 28 101 39 111
186 25 98 38 110
184 26 98 40 109
189 27 96 40 107
196 28 96 38 106
198 25 90 32 104
159 15 86 22 102
179 18 82 27 100
170 20 79 35 98
153 23 72 36 96
164 22 70 33 94
159 23 72 34 92
161 22 88 34 90
163 22 87 34 87
151 23 102 37 85
148 22 95 31 83
142 28 94 32 80
135 31 137 43 78
138 28 144 41 75
136 23 147 39 73
124 16 219 50 70
125 20 245 54 67
123 22 242 53 65
126 21 244 54 63
130 28 236 53 60
126 29 243 53 58
141 54 242 60 56
137 54 216 52 54
138 59 193 47 52
137 60 196 49 50
136 59 138 46 49
155 69 98 59 47
157 75 116 71 45
150 86 117 85 43
145 85 151 88 41
146 88 189 96 39
142 80 200 93 38
133 81 200 95 36
134 93 199 100 34
142 97 198 104 33
151 101 197 107 31
139 89 184 98 29
126 81 202 89 28
126 73 229 68 26
130 85 220 72 25
136 90 227 69 24
128 90 237 69 23
126 89 256 76 22
135 70 306 66 20
131 57 311 53 20
113 38 330 53 19
115 33 369 55 18
114 33 365 54 18
119 28 343 52 17
124 22 342 52 17
119 19 326 57 17
121 19 318 57 16
122 19 346 49 16
119 37 323 47 17
121 38 316 55 17
120 41 303 44 17
119 47 267 45 17
121 46 258 65 17
119 47 278 68 18
124 48 277 69 19
119 49 270 65 19
125 49 352 76 20
124 49 342 77 21
115 46 299 73 22
120 56 317 61 24
119 60 376 55 25
114 47 389 57 27
115 44 405 51 28
115 45 435 58 30
104 47 436 58 31
106 50 439 58 33
111 50 370 40 35
121 49 360 65 36
119 48 391 93 38
122 42 453 113 40
118 41 420 113 42
111 45 440 114 45
130 45 479 124 47
131 54 433 115 49
152 55 445 111 51
153 52 456 114 53
143 54 504 124 56
176 56 504 127 58
179 74 498 111 60
165 83 512 91 63
172 79 532 100 65
170 68 542 117 67
145 68 506 114 70
140 68 511 116 72
149 70 480 119 74
152 66 480 120 76
150 65 466 119 79
141 69 529 133 81
155 62 488 130 83
167 58 419 144 85
158 73 504 171 87
174 70 476 153 89
205 74 501 167 91
202 73 487 166 93
173 78 513 192 94
195 79 536 201 96
183 78 512 195 98
146 64 411 173 100
149 59 413 173 101
152 53 419 177 103
175 60 340 161 105
172 63 340 164 106
142 75 307 156 107
160 78 308 156 109
161 90 232 110 110
123 80 110 53 111
127 78 94 47 113
127 101 109 73 114
124 108 111 94 115
124 108 102 99 116
114 113 88 100 117
135 124 100 115 117
133 117 85 110 118
127 115 85 110 119
134 83 80 99 119
145 75 65 76 119
151 71 58 70 119
150 69 61 83 119
143 79 73 96 119
155 86 93 112 119
156 86 94 116 119
157 71 84 105 119
157 68 91 101 118
154 64 88 97 118
161 55 86 83 117
148 44 83 64 116
141 41 82 58 115
140 45 84 59 115
146 41 86 58 113
146 38 75 47 112
138 38 76 49 111
126 37 71 47 110
134 32 52 39 108
138 27 47 40 107
128 29 43 36 105
127 29 45 36 104
144 29 75 45 102
144 19 76 41 100
127 16 82 42 98
132 19 98 48 96
132 19 107 49 94
135 19 121 55 92
133 21 133 58 90
128 27 139 60 87
152 28 142 61 85
153 33 150 66 83
137 32 125 54 81
152 30 116 53 78
157 30 118 52 76
130 36 135 50 74
129 36 156 53 71
129 37 146 48 69
152 39 121 40 66
152 36 115 28 64
140 36 147 32 61
144 34 161 31 59
143 36 165 32 56
134 38 177 42 54
132 40 177 46 52
147 26 196 45 50
148 31 192 52 47
141 33 179 53 45
130 39 192 54 43
131 39 196 54 41
127 40 186 52 40
129 40 185 49 38
125 39 194 49 36
135 38 201 42 34
135 30 206 33 33
116 21 192 45 31
129 30 175 48 30
133 38 216 56 28
129 38 214 52 27
140 38 229 52 26
139 37 238 53 25
141 33 250 62 24
139 36 300 62 23
132 51 299 63 22
170 55 282 73 22
169 56 291 81 21
157 58 319 84 21
151 52 322 88 21
151 63 336 91 21
130 58 324 91 21
117 51 314 89 21
115 50 305 67 21
122 64 234 39 22
131 69 149 42 22
93 70 142 59 23
94 73 204 66 23
97 72 248 68 24
96 71 265 59 25
92 55 235 48 27
108 40 241 48 28
108 40 241 48 29
114 42 243 47 30
115 44 229 42 32
115 57 255 47 34
119 63 248 49 35
122 63 286 65 37
127 56 303 65 39
136 55 289 79 41
135 54 326 81 43
133 54 325 79 45
137 55 325 80 47
126 49 325 75 49
135 50 329 78 52
135 43 306 76 54
147 54 310 79 56
144 70 261 91 58
130 82 255 121 61
142 82 470 146 63
143 78 471 147 65
135 80 471 151 67
143 94 507 141 69
146 99 532 137 72
130 80 547 137 74
131 88 564 139 76
120 94 559 147 78
148 92 565 139 80
149 92 541 115 82
147 92 299 78 85
150 98 311 80 87
147 97 290 90 89
153 83 304 105 91
148 51 298 106 93
151 59 339 122 95
150 56 371 127 97
151 61 365 123 99
154 64 353 123 101
154 69 361 132 103
138 67 361 129 105
145 68 354 140 106
146 66 356 133 108
140 65 289 118 110
145 68 259 114 111
142 62 245 103 112
151 68 191 93 114
152 65 190 93 115
144 56 191 93 116
153 56 138 71 118
154 62 117 75 119
156 64 86 63 120
156 66 80 68 121
142 67 84 70 122
151 64 68 71 123
149 66 70 72 123
142 73 81 96 124
147 72 78 109 124
163 74 81 119 124
159 73 81 119 124
151 65 73 108 124
157 57 69 91 124
172 70 71 101 124
174 70 74 101 124
168 66 74 90 123
172 61 62 86 123
192 58 62 89 122
186 63 66 79 121
150 59 64 59 121
160 57 74 60 120
160 56 73 55 119
152 45 76 49 118
159 41 75 47 116
158 41 67 45 115
144 43 60 46 114
150 50 65 60 112
149 47 62 54 111
168 43 64 52 109
165 43 64 53 107
169 50 70 60 105
181 46 113 68 103
171 46 109 69 101
167 43 152 80 99
166 41 181 84 97
177 41 184 83 95
177 36 184 78 92
159 36 185 78 90
180 36 185 78 88
181 37 187 77 85
157 21 183 69 83
174 23 150 55 80
172 23 176 59 78
165 24 184 50 75
170 23 144 39 73
169 24 204 48 70
162 24 243 50 68
160 26 243 52 65
146 25 254 52 63
153 27 254 59 60
151 30 254 56 58
142 30 255 56 56
144 31 241 56 53
148 30 199 51 51
146 31 200 51 49
142 28 159 42 47
142 27 104 40 45
145 21 110 37 43
134 20 98 32 41
145 20 96 23 38
146 22 95 23 36
130 34 87 31 35
138 36 87 33 33
135 36 113 33 31
144 50 129 58 29
143 54 157 67 27
136 57 200 71 26
143 57 198 70 24
143 57 182 69 23
150 58 179 70 22
149 57 186 76 21
146 62 236 93 20
155 66 278 101 19
154 73 263 103 19
138 64 266 91 18
139 56 263 81 18
142 43 227 69 18
132 34 216 67 18
128 35 215 62 18
117 34 213 62 18
130 38 222 63 18
133 33 204 49 18
124 35 184 41 19
123 34 183 39 19
127 46 172 45 20
126 44 162 58 21
118 42 260 55 22
127 35 250 55 23
127 35 238 65 25
124 33 245 69 26
128 34 263 67 28
126 25 264 66 30
113 26 263 66 31
120 32 276 67 33
123 34 284 69 35
129 37 295 64 37
128 40 229 55 39
125 42 239 57 41
139 43 248 54 44
130 44 222 50 46
128 48 223 53 48
129 52 238 53 51
132 59 230 71 53
124 56 229 74 55
110 51 218 73 58
132 64 198 79 60
130 66 229 108 63
115 65 223 119 65
126 63 246 127 68
126 63 248 132 70
119 65 302 144 73
121 71 301 143 75
121 54 299 126 78
147 61 313 119 80
148 60 319 121 83
132 50 342 138 85
158 71 344 128 87
160 79 336 115 89
144 79 333 102 91
146 83 343 101 94
152 83 295 92 96
156 68 288 92 98
152 70 306 99 100
149 72 272 81 102
159 76 271 88 104
151 81 242 74 106
155 64 193 62 107
154 49 194 59 109
156 53 163 55 110
158 49 104 49 112
147 60 74 43 113
149 62 78 44 115
149 62 50 38 116
135 63 39 48 117
139 61 55 59 118
140 97 96 104 120
141 105 106 111 121
141 106 108 111 121
142 107 104 115 122
141 107 97 114 123
149 106 97 136 123
140 106 95 137 124
150 101 89 130 124
152 97 73 112 124
155 92 73 114 124
155 73 56 99 123
137 73 64 107 123
169 91 87 126 123
164 88 87 122 123
163 90 91 125 122
162 65 77 89 122
160 63 77 75 121
149 57 79 68 120
156 54 77 61 119
148 45 66 55 118
147 41 51 51 117
140 44 54 54 116
188 26 44 32 115
199 27 44 33 113
193 35 49 39 112
192 36 52 39 111
193 39 52 41 109
199 33 48 41 107
180 33 54 42 105
181 33 75 49 104
204 37 83 49 102
205 40 137 79 100
145 45 158 80 98
128 44 161 79 95
133 46 168 86 93
134 47 164 84 91
134 49 166 88 89
133 51 189 92 86
131 50 208 96 84
119 50 210 92 82
113 44 215 95 79
114 42 200 68 77
114 38 199 66 74
124 37 204 67 72
126 38 206 66 69
123 41 207 68 67
118 41 206 68 65
116 41 192 67 62
124 43 168 65 60
124 39 154 61 57
125 39 163 48 55
132 39 194 60 53
145 35 169 54 51
131 32 149 50 49
119 29 180 49 46
123 25 202 46 44
127 24 221 52 42
125 24 221 51 40
130 22 222 48 38
128 22 225 46 37
122 22 216 47 35
125 19 177 39 34
115 17 158 34 33
120 25 179 43 31
122 26 221 53 30
121 28 216 56 29
118 28 190 54 29
119 28 268 77 28
120 28 296 87 27
126 30 293 87 27
124 30 291 85 27
131 31 292 86 27
131 31 289 89 27
132 29 286 89 27
136 31 260 84 27
128 28 236 81 28
136 27 259 91 28
131 25 206 79 29
126 26 171 71 30
130 24 183 72 30
136 33 246 74 32
120 69 254 77 33
125 88 257 72 34
133 82 253 83 35
130 95 230 74 36
130 101 239 80 38
124 106 221 100 39
136 107 227 102 41
133 107 244 103 43
135 107 227 100 44
128 106 188 100 46
136 87 185 105 48
140 58 191 109 50
123 55 194 87 52
138 48 203 88 55
139 40 199 93 57
136 36 212 92 59
134 37 297 93 61
132 37 417 139 63
125 42 497 153 66
133 61 550 151 68
140 68 663 177 70
119 55 723 179 72
120 64 731 178 75
108 77 728 177 77
114 80 733 176 79
123 82 724 176 81
137 83 697 175 83
139 83 614 139 86
145 82 454 122 88
133 74 452 126 90
117 60 363 105 92
131 60 282 101 94
135 71 302 120 96
135 62 313 122 98
139 61 297 119 100
136 61 291 97 102
117 59 277 96 104
118 60 282 105 106
117 68 305 105 107
128 57 242 90 109
128 57 228 89 110
120 59 215 88 112
122 48 171 62 113
117 48 154 52 115
123 45 153 53 116
122 38 141 57 117
174 113 142 103 118
206 145 165 128 119
205 151 145 136 120
204 156 154 143 121
205 156 144 142 122
198 158 142 143 123
196 160 142 153 123
196 162 145 158 124
200 164 145 159 124
201 163 144 159 124
156 122 121 122 124
123 92 89 105 124
114 79 75 76 123
131 86 73 90 123
130 89 73 93 123
133 87 72 94 122
146 81 69 79 122
151 74 55 63 121
149 60 50 53 120
151 56 51 49 119
143 50 46 47 118
152 50 59 49 117
151 50 66 49 116
139 30 60 35 115
143 15 62 29 113
143 16 62 29 112
168 15 67 32 110
162 12 67 31 109
148 12 75 36 107
168 17 76 39 105
170 27 90 49 103
154 28 86 45 101
158 27 74 42 99
157 27 73 42 97
156 24 80 44 95
155 25 93 43 93
138 26 91 40 91
160 27 90 40 88
160 33 89 38 86
141 31 97 38 83
150 20 107 46 81
157 26 97 43 78
145 22 97 40 76
136 22 96 42 73
144 23 105 45 71
142 23 122 49 69
120 23 117 48 66
122 23 126 49 64
123 22 125 47 61
136 21 136 54 59
131 31 107 39 57
126 43 142 36 54
148 45 149 36 52
148 45 154 37 50
137 47 152 37 47
145 47 133 39 45
145 49 133 37 43
145 50 135 33 41
147 47 141 32 39
138 53 124 35 37
154 53 124 32 35
154 36 109 31 33
131 27 100 32 31
138 21 95 25 30
135 23 94 26 28
136 25 96 25 27
135 30 95 25 25
123 31 85 25 24
128 30 68 24 23
128 29 67 21 22
119 27 80 22 21
120 26 67 27 20
122 22 111 40 20
119 24 181 52 19
117 32 189 59 19
126 33 228 63 19
126 39 255 63 19
123 35 256 65 19
130 34 284 70 19
130 34 289 70 19
115 25 295 73 19
117 20 296 63 19
116 22 290 69 20
132 27 293 65 21
132 40 290 62 21
116 45 275 59 22
122 42 331 60 23
116 39 400 54 24
104 38 370 45 25
106 33 393 30 27
120 29 391 25 28
113 32 420 36 30
106 57 417 53 31
113 57 369 50 33
115 57 360 71 35
114 60 362 71 37
119 60 350 72 39
120 54 333 81 41
122 60 358 99 43
124 66 325 106 46
116 73 334 122 48
143 74 291 118 51
140 53 320 116 53
118 46 319 114 56
144 44 288 86 58
149 49 283 84 60
139 38 289 81 63
141 27 305 86 65
138 32 326 96 68
140 32 322 99 70
139 32 360 105 72
139 32 470 137 75
140 35 474 132 77
142 43 473 132 79
123 42 497 140 81
123 36 498 144 83
136 36 514 152 85
128 37 483 151 88
127 37 429 133 90
138 35 401 115 92
139 33 423 131 94
124 43 363 135 95
130 45 326 132 97
127 50 316 131 99
138 66 248 114 101
142 69 248 116 103
137 74 200 112 104
140 75 170 100 106
141 75 157 87 107
138 74 154 81 109
147 76 140 74 110
142 70 75 39 111
141 77 74 40 113
147 68 74 40 114
173 61 71 48 115
164 77 65 77 116
179 121 127 106 117
191 121 126 105 118
198 122 130 113 119
195 121 130 117 119
194 119 130 117 120
194 136 138 143 120
202 130 133 142 121
197 130 133 145 121
162 127 125 132 121
164 102 101 81 121
150 72 55 80 121
136 71 63 90 120
131 75 65 98 120
124 76 75 105 119
125 79 75 106 119
125 47 68 74 118
109 48 70 69 117
128 42 67 48 116
130 45 86 53 115
117 28 83 45 114
134 29 85 44 112
153 29 88 43 111
159 29 88 42 109
162 29 82 38 107
163 29 82 38 105
173 22 73 31 104
174 21 77 32 102
172 22 85 35 99
171 21 79 35 97
175 20 82 33 95
170 18 79 34 92
142 20 69 35 90
150 28 65 46 87
146 42 72 50 85
137 47 75 51 82
153 54 95 63 79
157 53 118 63 76
153 51 137 57 74
159 50 119 52 71
159 50 159 66 68
154 49 186 80 65
148 48 186 80 62
150 48 188 78 60
155 43 188 77 57
162 42 199 80 55
150 29 220 75 52
151 31 200 66 50
156 31 145 52 48
154 29 137 52 46
151 33 139 53 44
148 38 159 59 42
151 40 188 67 40
136 40 188 63 38
146 40 189 63 36
142 40 185 63 34
147 38 151 59 32
148 31 147 54 31
140 29 155 50 29
140 25 150 43 28
139 27 153 46 26
139 40 143 43 25
145 39 116 39 24
144 37 123 36 23
138 36 132 31 23
141 36 141 34 22
130 34 203 32 22
134 34 227 32 21
128 38 213 41 21
123 42 264 58 21
131 38 305 60 22
132 38 302 59 22
121 42 331 64 22
117 39 332 64 22
117 30 322 67 23
114 47 345 62 24
115 51 322 61 25
119 50 294 74 26
125 49 294 77 27
133 54 267 71 28
130 53 219 71 30
120 51 219 74 31
124 54 229 85 33
121 56 296 88 34
112 72 374 89 36
123 79 339 87 38
121 79 302 93 40
115 74 307 97 42
116 70 299 85 44
112 70 307 90 47
115 72 419 116 49
116 77 444 119 52
113 69 433 119 55
123 75 416 117 57
125 61 352 104 60
111 47 366 110 62
113 46 440 121 65
118 50 471 126 67
116 50 464 129 70
103 43 506 130 72
114 45 471 122 75
134 45 487 126 77
147 62 473 111 79
147 61 460 114 81
145 60 546 115 84
176 64 599 142 86
178 71 530 127 88
165 68 504 141 90
173 90 512 146 92
181 92 501 146 94
185 90 502 144 96
185 92 458 145 98
176 85 449 146 100
188 89 449 146 102
189 89 347 142 103
160 81 224 104 105
164 68 223 104 107
165 69 177 83 108
173 55 152 65 110
171 52 121 64 111
155 53 89 57 112
159 48 83 38 114
159 46 75 38 115
147 32 61 36 116
149 31 64 33 117
146 45 64 48 118
153 48 62 47 119
154 59 69 52 120
129 60 70 54 121
128 65 64 54 122
139 95 82 115 122
170 124 118 167 123
174 134 116 180 123
166 138 124 181 123
167 143 129 182 124
162 135 123 170 124
166 147 140 181 123
167 153 141 195 123
167 151 141 195 123
170 151 143 194 123
166 137 134 177 122
155 115 108 135 122
153 86 95 96 121
151 86 94 96 120
187 86 93 99 120
192 86 97 99 119
189 73 85 89 118
189 64 81 73 116
196 58 77 57 115
242 56 71 56 114
244 56 69 56 112
209 28 40 37 110
211 29 42 37 109
221 33 44 36 107
215 33 45 36 105
215 30 29 34 103
210 35 32 37 101
223 35 44 38 99
221 38 47 40 97
190 41 48 40 94
187 40 49 41 92
186 41 68 44 89
187 40 83 48 87
188 27 73 42 84
166 28 109 49 82
164 53 167 87 79
169 70 172 100 76
180 71 170 97 73
174 68 169 95 71
152 68 171 98 68
162 66 175 101 65
161 63 164 98 63
158 63 144 95 60
157 70 143 100 58
151 76 167 106 55
173 65 142 78 53
161 36 129 44 50
141 26 144 41 48
152 24 142 38 45
148 26 142 38 43
130 32 146 40 41
128 39 150 53 39
126 42 158 60 37
134 37 163 58 35
133 33 141 46 33
145 31 128 48 31
151 32 129 48 29
158 34 141 65 27
148 35 192 77 26
150 34 199 76 24
154 34 185 77 23
165 38 215 82 22
161 40 238 84 21
165 47 249 85 19
166 52 250 86 18
141 53 246 78 18
146 53 247 79 17
136 49 234 70 16
153 38 189 43 16
149 26 164 21 15
138 27 174 35 15
147 27 162 31 15
143 30 160 30 15
133 30 155 30 15
133 32 200 43 15
131 34 220 43 15
132 35 246 54 16
132 35 316 66 16
118 36 330 67 17
127 36 334 79 18
136 52 332 81 19
112 52 341 88 20
112 52 358 88 21
119 47 361 89 22
128 48 340 91 23
123 48 304 90 25
120 50 336 85 26
127 47 269 60 28
123 42 270 62 29
121 47 310 78 31
112 37 305 80 33
116 32 321 75 35
125 39 304 72 37
122 41 311 69 39
125 39 311 71 41
125 39 315 72 44
117 41 317 67 46
109 47 331 93 48
106 51 311 93 51
125 52 276 88 53
136 55 275 88 55
156 70 265 90 58
147 60 245 90 60
140 45 234 93 62
140 50 378 110 65
148 47 432 94 67
147 46 465 120 69
147 47 675 173 71
147 48 713 174 74
122 64 713 175 76
155 65 711 177 78
176 55 737 201 80
174 54 738 207 82
181 64 750 218 85
180 64 669 206 87
194 59 529 203 89
213 56 536 199 91
214 56 376 162 93
230 59 318 163 95
250 71 317 161 97
220 72 315 160 99
175 71 207 130 100
175 70 176 103 102
135 58 138 86 104
113 67 94 71 105
139 77 116 84 107
143 76 116 85 108
170 77 111 87 110
168 74 106 85 111
155 63 113 89 112
176 63 106 93 114
175 63 85 93 115
169 107 89 131 116
201 108 88 135 117
200 104 106 153 118
153 97 97 148 119
158 117 122 166 120
152 121 123 163 120
195 132 142 172 120
198 135 144 181 121
201 139 146 181 121
201 141 149 180 121
198 133 142 160 121
149 142 146 160 121
155 143 146 156 120
155 143 146 156 120
219 159 161 171 120
239 165 162 179 119
189 154 135 171 119
176 141 122 149 118
185 142 125 149 117
186 142 126 150 116
186 135 122 144 115
196 93 75 95 114
195 93 73 97 112
174 78 68 84 111
152 68 63 76 110
156 64 81 75 108
207 55 91 67 107
206 50 91 62 105
190 34 98 56 103
217 26 94 44 101
217 29 102 49 99
181 30 121 53 97
188 32 125 55 95
185 32 111 57 92
184 33 117 60 90
184 39 117 62 87
160 38 127 62 85
157 39 135 59 82
146 33 124 48 79
145 33 132 48 77
151 31 143 53 74
151 31 151 67 71
163 32 140 64 68
163 39 144 65 65
137 44 185 93 62
154 44 220 103 59
154 45 217 101 56
178 45 205 102 53
178 47 218 108 51
161 52 213 111 48
177 63 203 114 45
174 64 178 106 43
154 63 205 111 41
158 57 224 109 38
168 54 204 86 36
149 36 157 51 34
147 66 155 69 32
131 87 151 87 30
148 104 154 106 28
152 103 157 109 27
147 92 160 104 25
146 88 161 101 23
157 86 128 91 22
165 85 93 87 21
153 71 63 61 20
149 75 63 65 19
155 73 53 63 18
167 65 47 61 17
157 38 50 40 17
149 33 80 50 17
164 39 121 58 17
164 40 153 64 17
141 35 164 63 17
136 38 163 64 17
138 39 212 58 17
138 44 212 61 18
137 48 234 81 18
126 48 336 84 19
139 52 357 87 20
142 67 358 79 21
108 69 356 67 22
112 61 357 54 23
111 58 381 63 24
118 60 374 64 26
119 61 315 63 27
131 69 314 63 29
134 72 315 51 30
131 71 273 71 32
125 78 260 71 34
131 72 251 72 36
135 65 239 81 38
138 65 239 76 40
138 60 205 72 42
132 61 206 74 44
142 56 198 75 46
127 28 192 80 48
130 30 192 80 51
132 29 165 60 53
138 37 158 65 55
145 38 158 65 57
138 33 158 57 60
133 34 162 63 62
138 40 148 73 64
146 48 201 99 66
139 51 204 103 68
136 52 206 114 71
142 51 225 119 73
142 51 235 131 75
119 37 291 129 77
132 43 291 145 79
133 39 339 150 81
145 39 333 155 83
142 63 347 165 85
134 69 337 152 87
156 71 329 145 88
156 70 314 140 90
151 70 313 136 92
155 70 302 121 94
155 70 267 122 95
143 63 307 124 97
145 58 264 105 98
140 57 309 129 100
160 52 314 131 101
159 45 292 127 102
138 31 292 127 104
144 30 320 135 105
135 42 341 148 106
143 42 351 156 107
142 42 347 156 109
146 40 312 143 110
154 54 313 144 111
151 54 258 119 112
145 48 259 114 113
149 42 225 112 113
144 46 244 123 114
163 49 218 117 115
164 47 183 100 116
151 58 168 97 116
153 64 161 96 117
137 62 144 86 117
154 58 143 91 118
154 58 142 89 118
143 59 110 77 118
154 59 110 83 119
154 61 79 69 119
115 70 84 95 119
115 72 83 94 119
118 59 60 81 119
148 64 62 80 119
160 63 62 75 118
138 61 59 71 118
143 59 48 68 118
157 66 53 77 117
143 67 56 77 117
139 64 59 78 116
156 48 37 34 115
152 38 46 36 114
136 35 51 39 113
146 30 51 40 112
144 30 55 38 111
149 29 56 36 110
148 29 76 44 108
146 23 76 42 107
173 22 86 53 105
174 22 104 57 104
156 22 114 59 102
170 21 112 59 101
171 15 114 58 99
143 15 119 60 97
140 14 118 58 95
140 14 120 61 93
145 11 106 52 91
146 12 101 52 89
142 15 123 48 87
146 16 117 45 84
141 16 109 43 82
149 16 112 44 80
149 16 157 49 77
140 14 211 67 75
144 17 218 67 72
141 20 227 73 70
155 27 240 81 67
154 28 245 85 65
144 27 237 85 62
147 28 229 85 60
146 28 215 84 58
136 27 216 82 56
146 25 216 82 53
148 22 151 58 51
148 22 114 44 49
148 27 154 46 47
135 22 149 36 45
144 31 143 30 43
142 35 146 32 41
144 34 149 33 39
145 34 151 34 37
140 34 172 38 35
141 39 154 32 33
134 39 140 32 32
138 35 150 30 30
145 36 153 31 29
143 37 153 31 27
136 37 155 35 26
126 28 154 32 25
128 25 151 32 24
131 24 149 29 23
126 22 120 16 22
132 21 83 17 21
132 21 70 21 20
125 15 127 35 20
123 19 202 49 19
118 19 258 55 19
123 14 251 55 19
126 14 281 69 19
131 15 316 72 19
125 17 333 76 19
122 17 333 76 19
122 17 338 76 19
132 20 337 77 19
134 24 329 77 19
134 30 302 69 20
133 35 231 65 20
130 36 220 68 20
132 34 217 59 21
116 34 192 54 22
129 28 186 51 22
129 26 182 44 23
123 33 191 42 24
119 33 190 43 25
109 34 212 52 26
118 32 251 54 27
118 41 259 53 29
127 39 294 55 30
138 40 329 52 32
139 42 301 50 33
139 46 315 53 35
139 51 370 52 37
128 46 353 54 39
142 47 344 57 41
143 52 350 54 44
149 55 337 71 46
149 44 345 72 48
139 44 335 78 50
139 44 280 77 53
139 42 271 77 55
127 42 282 68 57
131 33 238 68 60
130 30 230 79 62
135 33 234 78 64
135 30 239 78 67
123 26 219 55 69
128 33 168 60 71
127 34 259 79 74
130 35 268 79 76
132 37 275 79 78
130 33 267 80 80
151 49 275 87 82
152 49 304 81 85
142 49 294 78 87
144 51 279 83 89
143 51 276 84 91
148 54 333 104 93
148 53 276 87 95
135 60 304 116 97
151 62 309 120 99
154 62 300 123 101
124 43 337 141 102
134 59 326 144 104
129 60 334 155 106
133 62 320 155 107
133 61 319 154 109
129 62 281 141 110
147 62 282 141 111
157 73 237 125 113
142 97 214 130 114
140 99 207 130 115
144 101 126 107 116
142 87 125 103 118
170 85 102 85 119
161 88 90 77 120
163 88 91 78 121
160 89 77 73 121
177 90 89 76 122
203 84 85 75 123
204 58 58 70 123
205 69 63 88 123
203 69 65 91 124
207 69 72 91 124
180 78 82 96 124
180 72 81 91 123
194 68 81 83 123
199 68 83 79 123
185 68 76 79 123
149 77 79 91 122
148 80 82 93 122
157 63 68 72 121
156 57 68 61 120
143 55 68 56 119
143 50 66 58 118
145 50 67 59 117
126 49 76 72 116
113 49 68 71 115
140 47 63 69 113
141 39 65 66 112
163 35 52 63 110
164 49 64 78 109
165 58 126 111 107
173 58 125 114 105
173 58 141 116 103
173 58 168 126 101
191 52 165 118 99
183 47 177 117 97
145 45 177 116 95
148 45 177 114 93
138 46 177 113 91
127 40 181 109 88
138 48 146 79 86
142 74 146 86 83
152 74 146 86 81
150 74 109 76 78
137 97 111 82 76
144 94 98 81 73
143 101 100 87 70
155 101 115 87 68
155 101 167 106 65
150 101 193 119 62
148 97 193 114 60
130 79 193 110 57
139 75 183 112 55
138 74 200 117 53
140 51 250 122 51
140 50 265 118 49
132 41 263 112 47
125 41 262 112 45
135 43 226 94 43
143 42 182 62 41
136 41 176 56 39
132 40 174 53 37
130 40 176 56 35
132 36 175 55 34
129 35 136 38 32
132 34 100 38 31
131 11 104 34 29
117 10 85 32 28
126 10 94 31 27
122 15 116 28 26
119 16 95 28 25
120 16 110 28 24
112 26 134 27 24
120 32 156 25 24
119 39 155 34 23
111 40 154 33 23
119 39 157 27 23
121 38 157 27 23
110 36 181 27 23
103 27 154 30 23
97 22 175 30 23
99 24 331 45 23
95 25 389 61 24
109 28 377 62 24
109 41 429 63 25
105 46 457 68 25
122 46 460 75 26
122 45 470 76 27
120 41 479 71 28
117 37 475 60 29
120 36 474 59 30
114 22 455 61 31
111 20 443 55 33
112 20 446 54 34
115 12 397 49 35
117 17 360 48 37
121 17 361 46 38
122 20 368 57 40
107 35 329 57 41
119 34 274 75 43
119 37 277 79 45
145 52 261 81 47
147 74 242 88 49
140 102 236 103 51
179 121 234 107 53
192 121 201 116 55
172 125 198 119 57
165 130 378 121 59
167 112 366 154 61
156 93 530 145 64
142 67 532 124 66
144 63 683 185 68
148 64 746 197 71
148 65 775 211 73
139 60 915 238 75
133 63 929 238 78
142 65 932 239 80
148 54 904 239 82
148 47 899 229 84
136 53 878 221 87
136 50 924 225 89
127 49 816 179 91
181 91 671 166 93
187 111 681 180 94
172 113 576 162 96
176 113 563 165 98
175 102 548 170 100
160 90 389 142 102
149 83 355 137 103
151 88 347 138 105
152 88 259 137 107
155 90 244 138 108
112 81 240 154 110
124 64 243 146 111
152 65 188 119 113
141 67 147 111 114
136 65 148 111 115
142 62 131 111 116
155 51 122 98 117
183 64 111 81 118
184 58 92 66 119
179 59 100 66 120
177 69 104 82 121
189 73 112 92 122
182 62 107 93 122
188 55 75 73 123
187 52 79 85 123
180 66 71 96 123
176 66 86 91 123
157 80 86 98 123
171 84 86 91 123
173 84 85 80 123
180 85 85 82 123
160 85 85 82 123
139 85 87 82 122
137 100 88 99 122
142 101 83 95 121
144 87 78 73 120
144 88 62 76 120
127 60 61 53 119
107 55 58 52 118
109 56 64 52 117
102 56 63 51 116
174 51 60 48 115
181 39 37 34 114
176 26 47 22 112
180 28 85 40 111
182 23 103 52 109
190 26 138 62 108
189 32 171 76 106
189 32 171 76 104
230 34 171 76 103
237 35 178 78 101
182 31 178 74 99
176 38 177 75 97
176 39 169 73 94
153 29 117 42 92
148 26 125 42 90
158 39 126 43 87
174 41 94 38 85
184 55 98 54 82
163 78 96 83 80
175 80 83 83 77
197 84 87 83 74
177 84 87 80 71
164 86 124 83 68
183 82 121 81 66
175 74 184 91 63
142 42 201 85 60
142 49 200 88 58
145 54 200 85 55
159 45 199 70 53
154 55 200 72 51
132 54 201 72 48
136 49 199 72 46
136 39 167 66 44
126 36 165 64 41
134 37 120 53 39
133 42 89 64 37
126 52 96 74 34
130 52 89 74 32
128 51 89 71 30
138 49 96 71 28
137 54 88 69 25
148 51 79 66 23
146 49 118 63 22
122 33 124 38 20
118 52 124 55 18
133 74 129 72 16
163 79 129 73 15
159 81 129 75 14
148 80 130 78 13
152 78 120 77 12
145 68 136 76 11
116 59 181 71 11
122 38 176 38 10
122 30 148 41 10
132 36 157 53 10
128 30 157 49 9
107 26 195 50 9
114 26 183 52 10
113 25 270 64 10
113 25 395 70 10
119 22 410 66 10
125 27 399 62 10
120 30 386 59 11
118 26 384 60 12
119 28 390 75 12
118 32 392 72 13
111 34 341 57 14
119 36 325 55 15
118 27 310 53 16
119 24 217 54 17
124 22 232 58 18
120 36 251 55 20
118 38 259 59 21
123 39 273 60 22
122 40 289 48 24
130 37 282 47 26
130 37 293 51 27
126 30 292 51 29
130 28 287 53 31
117 48 281 53 33
143 68 223 67 35
144 68 132 57 37
136 64 144 57 39
139 61 168 56 41
136 71 164 61 43
161 93 324 110 45
160 115 308 121 47
155 119 346 122 49
178 122 432 121 51
180 115 446 124 53
152 96 506 110 55
148 78 523 102 58
150 65 525 95 60
144 45 563 103 62
149 86 579 126 64
136 85 526 112 66
150 76 512 117 68
151 75 507 117 70
159 75 445 118 72
158 77 447 118 74
152 77 361 108 76
151 80 299 91 78
147 80 327 99 80
158 72 445 116 82
159 60 413 104 84
156 70 402 107 86
154 83 401 100 87
152 81 396 101 89
124 76 381 95 90
131 79 346 87 92
139 92 380 104 93
130 87 443 154 95
134 96 491 162 96
150 98 331 142 98
139 104 415 171 99
125 103 425 172 101
139 77 447 189 102
140 62 439 187 103
136 79 438 192 105
137 108 471 228 106
135 105 461 229 107
153 104 416 207 108
153 98 347 193 109
128 108 332 185 110
129 87 265 169 111
129 82 258 169 112
123 69 171 110 113
125 77 146 101 114
134 76 144 101 114
138 67 68 56 115
156 70 67 58 116
174 72 66 59 116
170 76 76 69 117
164 68 74 68 117
174 64 69 64 117
165 66 72 70 118
121 77 80 80 118
126 58 79 77 118
127 58 80 77 118
166 66 80 90 118
160 65 77 91 118
142 84 88 106 118
176 91 81 106 118
177 95 77 106 118
164 96 78 107 117
164 108 92 116 117
165 96 85 104 116
173 91 77 95 115
172 89 97 101 114
156 94 122 108 113
165 94 133 114 112
164 82 132 99 111
172 70 149 96 110
171 62 149 97 108
187 59 150 91 107
186 42 144 83 105
186 45 145 84 104
188 46 145 82 102
190 47 132 78 101
196 40 95 64 99
191 41 91 53 97
198 40 87 53 95
183 41 51 48 93
184 34 50 37 91
168 25 88 30 89
203 25 136 33 86
189 24 129 30 84
144 24 199 55 82
156 24 236 74 79
157 25 239 74 76
145 33 240 75 74
145 33 245 74 71
135 29 246 72 69
157 34 246 71 66
162 33 222 66 64
144 32 152 60 62
150 32 152 61 60
151 32 149 59 57
143 34 122 40 55
137 34 117 39 53
145 26 117 35 51
149 26 102 24 49
155 40 92 32 47
156 35 94 34 45
153 35 89 33 43
149 35 99 33 41
168 36 99 34 38
168 36 83 32 37
158 38 86 32 35
168 42 88 31 33
166 42 96 32 31
168 42 102 32 29
158 21 102 15 28
159 22 95 12 26
162 24 99 14 25
150 20 93 13 24
142 20 93 13 22
144 19 92 13 21
144 18 78 12 20
140 17 76 12 19
136 18 54 17 19
140 22 40 19 18
140 25 76 19 17
123 26 90 21 17
132 21 112 25 16
131 15 170 29 16
126 14 213 30 16
130 17 220 29 16
129 13 222 26 16
129 12 223 22 16
127 12 222 26 16
126 16 234 29 16
127 25 258 29 16
120 27 265 30 16
126 27 273 29 16
128 28 297 46 17
128 33 281 46 17
130 35 288 50 18
126 35 319 52 18
126 34 311 53 19
131 35 342 76 19
125 34 376 79 20
136 29 348 78 21
137 30 326 90 21
136 32 326 91 22
144 34 295 83 23
138 40 295 86 24
135 46 364 101 25
137 47 348 109 26
145 45 345 110 27
144 35 331 87 28
136 29 284 76 30
156 18 308 77 31
157 18 392 97 33
144 22 389 97 34
148 22 447 103 36
148 20 501 115 38
158 22 455 107 39
159 21 454 101 41
149 22 461 100 43
164 44 460 100 45
162 57 466 97 47
144 58 453 98 49
152 55 365 66 51
149 55 361 66 53
145 56 394 75 55
144 55 366 65 57
138 51 402 82 58
145 50 502 109 60
145 51 515 110 62
133 41 517 111 64
136 23 517 111 66
135 19 515 111 68
141 18 516 108 70
140 22 517 111 72
139 25 416 89 74
141 29 425 132 75
134 29 445 130 77
155 30 320 113 79
154 32 263 111 81
148 38 266 133 82
159 42 240 141 84
161 46 416 185 85
152 48 539 219 87
147 53 536 219 88
148 50 574 236 90
158 50 561 225 91
157 50 545 224 93
141 50 545 222 94
154 53 545 224 95
157 49 524 207 97
155 42 515 195 98
143 27 424 168 99
153 27 244 118 100
156 22 224 114 101
150 25 150 76 102
152 28 96 53 103
152 33 90 55 104
144 33 89 54 104
147 33 83 48 105
143 50 63 58 106
133 50 79 63 106
148 89 84 87 107
141 89 82 87 107
144 89 80 86 107
141 88 76 87 108
141 88 73 85 108
141 98 81 93 108
135 99 81 93 108
136 100 82 97 108
134 88 72 74 108
150 90 75 82 108
141 72 67 72 108
136 80 75 82 107
170 93 92 97 107
170 95 91 94 107
160 103 102 101 106
168 78 87 83 105
169 77 87 83 104
177 78 89 85 103
171 47 57 56 102
161 46 57 56 101
165 52 56 56 100
166 53 55 55 99
139 51 45 42 98
143 48 45 43 96
146 30 30 25 95
148 29 30 24 93
146 29 34 28 92
139 32 56 39 90
148 31 57 39 88
146 24 61 40 86
145 22 61 41 84
142 23 68 47 82
141 20 74 50 80
145 19 95 63 78
145 21 113 70 76
144 22 113 71 73
144 22 145 80 71
126 18 147 75 68
139 30 167 82 66
139 49 205 89 63
150 48 209 87 61
150 47 201 80 58
141 45 195 72 56
170 40 193 68 53
170 39 190 65 51
158 38 191 65 48
160 34 167 56 46
160 39 157 59 44
167 61 175 68 42
171 64 143 69 39
158 71 120 71 37
173 68 113 69 35
175 64 110 66 33
139 62 109 52 31
135 53 126 49 29
135 55 159 58 27
148 56 165 63 26
153 67 165 71 24
131 73 152 83 23
143 75 150 91 22
146 68 143 83 20
133 68 137 81 20
128 60 138 75 19
136 45 173 62 18
130 33 233 59 18
128 42 233 62 17
115 53 232 69 17
122 55 235 70 17
126 54 237 66 17
123 47 222 44 17
119 48 200 42 17
125 46 162 38 17
129 45 167 40 17
115 31 211 49 17
129 29 231 53 17
129 29 221 53 18
146 30 235 51 18
146 27 266 60 18
138 26 264 62 19
137 27 261 58 19
144 23 281 55 20
148 31 298 58 21
150 32 298 60 22
147 35 329 58 22
133 43 366 57 23
140 46 371 60 24
150 52 386 76 26
156 51 379 65 27
156 51 378 68 28
154 50 389 68 29
147 56 386 70 31
128 46 359 72 32
134 46 341 71 34
135 46 363 70 36
141 44 329 68 37
140 43 312 72 39
118 36 304 57 41
131 39 280 50 43
131 45 276 55 45
130 49 274 57 47
152 64 261 66 49
152 75 275 99 51
142 78 370 135 53
157 70 337 131 55
171 68 446 153 57
167 60 483 146 59
158 70 517 146 62
148 86 561 145 64
161 88 563 169 66
154 91 582 178 68
152 83 578 182 70
154 72 564 167 72
159 57 497 128 74
158 58 529 135 76
135 49 435 121 78
142 49 407 122 80
147 46 405 121 82
148 36 302 111 84
159 41 339 104 85
173 46 328 88 87
166 50 319 85 89
166 49 316 87 91
159 46 326 91 92
175 50 292 83 94
178 50 312 96 96
192 52 300 95 97
188 55 265 106 99
186 59 284 109 100
196 53 295 116 102
184 53 334 132 103
184 55 334 131 104
191 63 340 136 106
190 62 321 134 107
179 55 329 140 108
180 55 298 132 109
159 70 294 135 110
168 68 275 128 112
175 91 246 134 113
154 90 226 118 114
155 109 143 114 114
165 112 136 116 115
160 112 130 115 116
175 132 135 139 117
162 135 131 138 117
159 136 131 140 118
168 137 127 148 118
168 138 127 149 118
161 121 110 142 118
153 122 114 143 118
156 97 102 128 118
140 95 99 123 118
157 94 104 123 117
134 61 73 82 117
130 55 69 81 117
139 53 59 71 116
133 21 47 47 115
121 19 49 40 114
119 20 49 33 113
117 21 33 32 112
166 21 33 30 111
197 15 33 29 110
171 17 31 28 109
188 17 71 32 107
188 18 86 38 106
204 18 96 44 104
208 18 107 44 102
214 20 107 46 101
247 20 111 47 99
251 17 113 48 97
223 19 114 50 95
197 19 121 50 93
189 18 117 51 90
154 18 120 49 88
144 18 112 44 86
140 22 117 39 83
157 24 154 48 81
168 22 153 46 78
150 23 177 47 75
149 21 198 54 73
160 26 200 53 70
153 25 199 53 68
148 25 206 52 65
149 23 216 56 63
154 25 223 61 60
148 28 217 64 58
149 29 170 51 56
146 36 172 70 54
142 41 163 70 52
150 42 163 74 49
158 41 168 76 47
158 42 165 76 45
158 44 159 80 43
154 43 125 72 41
160 39 69 59 39
156 33 85 50 37
152 38 131 60 36
154 36 154 55 34
152 32 158 54 32
165 32 166 54 30
158 29 174 52 29
151 29 199 58 28
156 27 253 58 26
162 27 263 56 25
161 30 246 55 25
155 37 263 54 24
156 32 280 51 23
169 38 295 50 23
159 38 328 57 22
157 43 345 56 22
153 43 342 57 22
157 42 335 61 22
153 41 313 55 22
137 40 300 57 22
140 40 299 57 22
139 49 297 61 22
134 51 304 76 22
131 55 327 78 23
129 56 272 79 24
120 54 248 87 24
123 55 275 88 25
140 57 285 85 26
146 58 275 85 27
144 58 257 86 28
133 60 256 93 30
136 47 257 89 31
136 39 241 68 32
131 36 161 61 34
136 37 259 75 36
127 35 343 65 37
131 35 341 72 39
116 29 335 70 41
98 28 346 71 43
108 24 363 72 45
130 21 374 63 47
157 35 371 68 50
180 38 370 76 52
175 39 439 87 54
209 37 403 75 57
213 46 279 65 59
211 45 289 72 61
201 50 311 72 63
204 47 313 72 66
208 59 314 63 68
198 77 334 68 71
189 89 337 80 73
179 88 375 76 75
237 104 426 101 78
231 107 412 100 80
244 97 493 123 82
243 93 493 123 85
251 77 555 145 87
246 75 565 149 89
255 79 552 145 92
247 76 521 148 94
253 74 522 146 96
253 69 512 147 98
199 74 422 131 100
179 68 436 140 102
161 68 376 127 104
170 69 351 130 105
163 69 224 94 107
162 70 159 73 109
155 74 148 67 110
155 72 149 77 112
142 71 154 83 113
160 71 169 94 114
154 49 160 86 115
153 51 114 66 117
152 50 101 65 118
143 58 84 58 119
142 63 62 54 120
141 63 38 52 121
168 63 38 52 122
166 91 66 92 123
163 103 78 110 123
147 101 75 115 124
164 109 78 130 124
200 109 80 129 124
199 110 80 126 124
200 103 80 125 124
220 102 81 127 124
220 107 105 130 124
175 106 110 129 124
172 76 96 80 123
162 72 100 92 123
169 72 105 91 123
167 58 103 73 122
132 57 104 71 121
151 56 107 73 120
151 52 108 73 119
147 51 105 72 118
144 27 79 48 117
138 32 65 46 116
178 27 30 40 115
182 26 39 27 114
185 25 40 27 112
184 25 53 28 111
188 27 67 33 109
210 23 65 31 107
211 23 80 33 106
195 21 98 61 104
218 28 109 70 102
213 33 110 75 100
149 32 120 78 98
156 33 125 78 96
155 34 122 74 94
157 41 133 80 92
157 45 198 95 89
139 44 201 93 87
145 44 199 94 84
146 44 203 78 82
137 40 207 67 79
138 34 199 53 77
147 34 201 55 74
141 33 203 61 71
141 39 203 68 69
145 31 191 67 66
149 24 108 39 64
146 30 81 41 62
159 32 81 45 59
157 32 93 55 57
144 32 107 60 55
153 33 112 60 53
144 33 118 61 51
146 31 122 58 49
146 21 125 50 47
147 20 124 33 45
152 20 110 30 43
149 31 82 37 41
139 34 74 37 38
152 53 74 44 36
168 73 118 69 34
160 75 165 77 32
156 74 196 79 30
144 78 187 79 29
165 83 194 90 27
157 84 246 102 25
149 98 295 118 24
149 96 301 115 22
152 98 298 115 21
145 89 305 114 20
110 67 294 97 19
144 56 266 85 18
147 53 221 70 18
144 54 214 72 17
148 54 215 73 17
148 57 187 81 17
152 40 122 65 16
155 45 111 65 17
154 42 156 66 17
170 40 149 71 17
177 41 160 73 17
155 43 189 72 18
159 43 197 68 18
166 45 203 68 19
150 55 215 71 20
154 75 213 63 20
157 77 215 58 21
132 82 214 55 22
125 84 191 54 24
128 81 191 46 25
131 104 330 45 26
153 108 326 41 27
154 149 343 57 29
150 183 544 55 30
159 184 583 72 32
152 210 590 92 34
144 226 617 99 36
149 222 617 96 38
150 224 631 96 40
149 225 634 98 43
153 213 548 105 45
134 215 532 101 47
135 189 537 83 50
154 144 374 87 52
188 144 248 84 55
187 107 252 71 57
186 59 234 63 60
192 60 250 65 62
190 54 255 67 65
176 43 232 62 67
167 40 228 54 70
167 28 227 55 72
149 31 287 59 74
148 38 311 49 77
107 45 325 52 79
137 42 317 96 81
140 42 278 99 84
140 47 301 128 86
151 47 369 143 88
153 48 364 143 91
159 47 368 140 93
159 45 378 142 95
166 38 354 143 97
164 44 291 142 99
153 40 260 145 101
151 36 224 116 102
152 43 209 104 104
130 65 179 92 106
141 65 102 72 107
139 65 102 72 109
169 106 122 98 110
169 106 110 96 112
166 105 108 94 113
155 137 137 121 114
154 136 137 121 116
150 136 133 120 117
198 162 138 136 118
219 163 154 160 119
208 168 157 171 120
219 175 166 179 121
205 158 144 175 122
204 160 146 191 123
205 163 146 193 123
238 132 120 176 123
230 128 114 173 124
218 124 111 174 124
215 106 108 163 124
208 88 86 131 124
208 74 82 88 123
174 62 77 87 123
175 64 76 93 123
175 61 78 71 122
175 44 77 63 122
133 42 78 63 121
159 49 80 68 120
176 64 83 72 119
151 59 70 70 118
149 60 70 69 117
146 61 62 66 116
211 60 56 66 114
210 64 61 67 113
218 60 47 56 111
220 43 37 38 110
221 43 42 39 108
236 48 50 43 106
228 45 75 47 104
226 43 83 47 102
258 53 84 51 100
254 56 130 71 98
179 53 156 79 96
154 59 158 86 93
156 58 158 86 91
186 58 157 85 88
188 58 165 85 86
182 57 165 82 83
182 58 156 76 81
181 59 163 75 78
170 51 166 74 75
167 45 144 58 73
176 46 148 59 70
178 41 151 54 67
171 42 182 60 65
156 38 227 64 62
155 34 224 62 60
148 33 234 66 57
167 32 237 67 55
175 33 232 67 52
170 30 231 66 50
176 38 256 75 48
169 38 240 65 45
178 39 242 66 43
176 42 239 66 40
177 45 208 65 38
189 46 210 64 36
183 45 209 60 34
197 49 219 66 31
192 50 236 70 29
171 50 234 69 28
173 43 237 64 26
165 43 291 69 24
166 42 305 68 23
166 40 295 64 21
163 34 292 59 20
149 33 288 65 19
140 34 279 66 18
126 28 261 56 17
126 24 226 45 17
124 17 212 41 17
133 27 220 44 16
138 42 181 45 16
121 45 185 62 16
127 44 273 73 16
137 43 363 79 17
147 45 367 71 17
146 45 382 74 17
139 45 384 79 18
161 55 380 82 19
171 59 374 80 20
159 59 355 81 21
155 52 348 81 22
159 52 359 79 23
147 52 434 91 24
124 56 366 85 26
125 55 338 74 27
118 52 345 78 29
125 62 392 98 30
118 59 433 119 32
115 72 552 117 34
112 97 565 117 36
113 96 563 120 38
124 101 567 120 41
139 116 481 109 43
140 142 420 90 45
129 151 447 90 48
130 152 457 95 50
120 153 456 91 53
124 154 456 75 55
126 146 326 80 58
137 117 346 86 60
133 111 403 81 63
105 113 459 115 65
103 108 487 120 68
104 77 480 132 70
103 48 455 136 73
130 45 439 136 75
132 46 433 146 78
122 36 437 149 80
132 40 491 189 83
123 62 484 198 85
136 69 448 196 87
137 75 374 169 89
164 76 294 154 92
168 78 311 155 94
169 76 342 169 96
158 81 381 175 98
149 79 377 156 100
147 103 370 157 102
137 102 304 124 104
135 103 236 112 105
122 96 199 107 107
122 83 199 106 109
95 61 190 85 110
138 74 196 87 112
147 88 195 100 113
139 88 160 94 114
162 91 163 95 115
172 87 154 100 117
160 91 160 107 118
161 82 125 98 119
161 89 116 105 120
160 86 108 101 121
147 86 99 106 122
138 89 100 110 122
137 96 106 115 123
124 113 123 129 123
116 110 121 126 123
110 117 125 131 123
157 167 167 175 123
161 180 184 195 123
167 183 183 192 123
201 196 197 207 123
202 193 193 201 123
190 187 187 193 122
188 174 177 182 122
164 118 117 122 121
159 101 98 101 120
160 106 108 105 119
170 85 98 89 118
177 81 89 81 117
177 75 80 76 116
165 50 51 51 115
206 35 40 45 114
225 29 38 41 112
225 29 55 44 111
226 22 54 38 109
230 26 60 40 108
215 28 58 39 106
179 26 57 33 104
194 24 57 33 102
188 25 67 34 100
177 27 69 32 98
169 27 69 30 96
156 29 71 33 94
172 29 52 30 91
177 28 55 30 89
170 24 121 35 86
176 22 160 40 84
173 19 159 40 81
173 21 199 46 78
175 27 252 59 75
163 27 262 63 73
173 32 262 70 70
173 32 262 71 67
175 31 283 79 64
172 32 285 79 61
170 32 276 77 58
167 28 257 72 56
167 27 245 66 53
161 31 266 83 51
167 29 229 79 49
165 29 223 79 46
156 27 223 75 44
160 31 233 78 42
144 31 214 75 40
149 36 222 79 38
147 41 203 70 36
147 45 137 56 34
156 56 128 74 32
151 58 115 76 30
149 59 119 76 29
147 60 119 74 27
138 64 166 74 26
159 64 158 69 24
171 64 158 70 23
164 60 153 62 22
173 62 168 62 21
187 61 201 64 20
175 48 200 56 20
163 32 222 52 20
168 13 270 59 20
169 9 303 64 20
160 14 289 63 20
153 14 289 64 20
146 14 287 61 20
168 37 285 72 20
157 48 272 80 21
130 60 229 91 21
137 62 209 95 22
138 61 215 95 23
126 64 190 89 23
128 62 181 84 25
129 57 212 84 26
125 53 213 85 27
125 50 223 81 28
109 48 228 80 29
113 46 226 80 31
116 36 245 73 32
114 45 245 66 34
121 48 259 82 36
121 45 259 86 37
129 45 249 89 39
125 48 213 85 41
117 64 231 86 43
157 74 230 95 45
189 75 278 96 47
188 74 288 91 50
186 77 331 96 52
189 74 340 99 54
229 75 332 83 57
242 75 338 88 59
236 76 335 86 61
242 76 341 105 64
246 84 368 109 66
224 63 421 90 69
179 102 386 116 71
179 115 547 170 74
228 114 558 170 76
236 113 546 172 78
208 111 578 178 81
218 115 577 176 83
219 117 580 174 86
239 114 588 169 88
232 91 568 162 90
225 108 521 162 92
218 97 557 161 95
223 86 429 103 97
205 86 373 138 99
213 97 554 209 101
208 103 591 221 103
191 106 599 230 104
192 101 612 235 106
161 103 597 230 108
160 102 597 229 110
160 112 603 237 111
165 110 572 228 113
157 110 507 214 114
155 111 492 201 116
142 105 333 133 117
147 99 184 87 118
144 83 177 78 120
144 92 134 71 121
152 96 131 71 122
160 115 133 90 123
154 104 90 98 124
155 115 85 103 125
155 130 100 144 125
152 128 100 160 126
153 127 101 170 126
156 126 96 170 126
166 125 96 168 126
161 122 97 168 126
168 122 95 167 126
161 95 79 148 126
162 85 63 116 125
161 81 71 116 125
159 62 51 91 124
150 56 53 70 124
150 58 53 43 123
141 55 53 44 122
137 56 53 41 121
156 54 53 41 120
211 43 63 42 119
211 42 65 37 117
219 42 67 39 116
235 35 51 38 115
238 35 53 39 113
237 33 48 28 111
236 23 39 20 110
244 19 70 27 108
263 24 109 46 106
261 28 114 52 104
211 25 111 51 102
227 30 110 52 100
198 29 110 50 98
138 27 107 43 96
145 30 103 51 93
143 26 88 48 91
161 33 82 41 89
162 31 95 46 86
149 31 162 60 83
174 33 158 59 81
174 33 167 61 78
160 31 227 76 75
162 34 268 88 72
171 34 273 88 69
176 36 273 84 67
173 36 282 86 64
174 31 285 85 61
172 42 280 88 58
162 43 217 74 56
162 42 207 73 53
162 53 261 100 51
151 53 233 90 48
165 48 173 67 46
161 50 149 68 44
156 40 137 61 41
159 40 135 62 39
148 41 140 65 37
155 39 168 72 35
155 40 168 73 32
151 40 171 74 30
153 24 126 47 28
151 32 123 47 27
139 27 123 41 25
141 28 123 42 23
138 26 114 39 22
137 25 156 54 21
132 33 191 68 20
139 34 206 69 19
152 34 268 77 18
161 34 279 71 18
160 42 280 71 18
158 39 288 70 18
165 39 290 73 18
164 39 308 77 18
145 43 331 93 18
153 49 300 88 18
147 39 230 59 19
129 34 260 63 19
129 22 275 68 20
115 21 272 69 20
126 22 279 65 21
126 28 280 63 22
123 28 281 65 23
128 31 290 70 25
138 35 273 61 26
136 31 255 53 27
141 38 253 52 28
140 46 253 73 30
143 46 219 81 31
140 47 201 82 32
152 47 210 82 34
154 48 244 83 36
138 52 264 84 38
139 51 267 84 39
139 51 354 85 41
135 48 407 93 44
133 49 412 94 46
129 39 410 78 48
144 40 436 66 50
143 38 470 78 53
127 38 597 112 55
134 34 667 116 57
135 39 656 116 60
150 66 753 146 62
142 63 758 147 65
134 61 731 138 67
151 63 740 137 70
163 60 740 137 72
180 62 719 138 74
190 97 707 137 76
187 104 593 105 79
208 111 412 89 81
209 110 408 97 83
205 95 301 77 85
210 87 232 84 87
211 99 234 84 89
210 91 243 110 91
193 97 279 121 92
169 98 286 123 94
181 89 316 134 96
184 85 315 131 98
141 77 302 127 99
142 77 303 125 101
132 74 296 129 102
129 71 287 123 104
129 61 285 124 105
117 68 244 104 106
129 70 151 78 108
121 78 164 90 109
153 102 141 111 110
150 117 146 116 111
148 117 140 113 112
154 152 152 153 113
154 154 141 152 114
156 162 141 159 115
156 163 137 160 116
161 185 165 181 117
184 191 167 183 118
185 193 174 193 118
142 179 155 174 119
137 164 153 169 119
139 166 155 168 119
142 146 144 139 119
150 155 151 151 119
149 143 143 142 119
148 143 148 143 119
144 114 108 110 119
158 95 99 105 119
154 88 93 90 118
138 87 96 92 118
144 87 98 92 117
143 63 85 82 116
151 59 76 82 115
147 53 88 66 114
157 57 91 68 113
162 45 82 58 112
162 45 83 57 111
144 45 89 58 110
160 45 85 54 108
176 43 84 52 107
174 41 81 52 105
179 34 70 45 104
189 33 140 64 102
178 31 152 74 100
154 27 199 89 98
186 59 260 117 97
185 59 258 115 94
167 55 260 113 92
184 57 259 112 90
181 57 259 112 88
163 52 267 112 86
168 51 304 113 84
164 46 273 93 81
178 52 273 93 79
180 54 296 87 77
167 36 282 71 74
169 40 282 72 72
164 41 293 72 70
149 38 298 73 67
154 40 298 73 65
170 34 307 82 62
180 34 259 78 60
176 42 283 87 58
171 41 329 95 56
170 40 290 97 53
156 41 236 77 51
167 33 278 74 49
168 34 276 74 47
166 33 271 74 45
165 43 271 80 43
150 55 253 80 41
145 57 274 88 39
147 53 263 87 37
135 67 189 76 35
139 66 162 66 34
135 68 197 78 32
143 81 189 90 30
141 82 196 91 29
137 89 211 93 27
147 91 229 95 26
151 85 227 88 24
128 84 188 79 23
129 82 147 64 22
132 54 134 53 20
148 47 139 50 19
147 51 134 51 18
131 51 134 50 17
141 47 133 46 17
135 43 138 41 16
151 40 128 34 16
151 40 138 34 15
148 41 156 38 15
156 33 158 36 15
152 24 168 25 15
143 25 255 43 15
139 23 282 50 15
141 23 292 61 16
143 27 312 61 16
149 27 312 61 17
127 28 344 72 17
128 28 341 71 18
133 31 331 81 19
130 33 346 84 20
127 36 346 85 21
131 37 297 77 22
133 37 259 70 23
125 35 251 67 24
137 27 234 69 26
137 37 289 80 27
132 31 245 58 29
148 29 211 66 30
150 43 297 86 32
173 55 288 85 34
172 54 299 88 36
165 58 305 88 38
170 58 331 97 40
171 66 331 97 42
153 80 358 98 44
152 77 316 84 47
158 73 335 90 49
154 84 334 90 51
155 84 319 83 54
134 86 340 86 56
136 83 322 73 58
130 75 338 78 61
135 81 389 73 63
140 82 388 76 66
168 75 408 121 68
167 69 520 139 70
157 66 479 127 73
156 59 477 127 75
156 59 506 129 77
149 51 504 122 79
151 59 504 122 82
150 53 497 104 84
154 49 423 104 86
155 48 418 113 88
133 45 387 84 90
144 46 238 50 92
144 54 222 44 94
138 54 218 50 96
143 58 157 52 98
140 61 111 44 100
149 56 169 61 102
150 53 153 54 103
143 51 123 54 105
147 49 111 53 107
143 55 119 60 108
128 57 117 60 109
131 64 115 60 111
121 59 112 47 112
116 74 122 71 113
123 104 142 108 114
119 105 104 100 115
127 105 93 100 117
120 108 96 100 117
158 133 128 144 118
164 126 96 137 119
158 128 94 139 119
166 109 90 125 119
164 105 84 104 120
197 108 105 113 120
199 101 108 114 120
191 101 107 117 119
202 96 118 113 119
203 96 122 113 119
154 55 97 74 118
164 58 99 68 118
194 49 103 56 117
168 41 105 46 116
157 39 103 36 115
153 41 92 37 114
180 39 87 44 113
188 39 90 44 112
185 40 64 43 110
191 39 37 43 109
209 39 35 44 107
202 39 44 45 106
159 29 52 41 104
191 34 54 39 103
180 32 52 37 101
150 32 87 46 99
160 30 117 45 97
160 30 130 46 95
142 29 133 48 93
145 23 144 46 91
141 23 142 47 89
142 15 133 42 86
142 13 138 43 84
126 15 135 43 82
137 17 136 42 80
138 18 149 43 77
131 21 129 41 75
137 20 128 42 72
146 22 197 43 70
142 22 197 42 67
133 24 207 46 65
142 33 209 43 62
143 34 209 43 60
130 31 208 44 58
133 26 213 44 55
133 29 203 40 53
130 29 198 40 50
133 28 192 37 48
125 28 128 27 46
131 27 86 19 43
131 27 88 14 41
127 23 99 13 38
129 22 109 15 36
124 21 106 12 34
142 20 108 25 32
142 20 107 25 30
137 29 153 29 28
134 33 236 71 26
135 39 254 77 25
147 40 246 76 24
146 41 233 75 22
137 36 244 74 21
153 33 281 75 20
154 33 309 73 20
147 31 306 62 19
147 21 304 61 18
146 20 299 63 18
169 19 242 50 17
167 20 190 45 17
151 33 231 47 17
155 30 252 46 17
152 35 249 48 17
151 42 226 49 17
147 42 187 49 17
142 54 183 50 17
139 54 184 41 18
141 55 275 21 19
145 55 277 19 19
145 55 304 28 20
140 51 327 29 21
151 51 316 30 23
154 51 351 44 24
129 47 353 43 25
132 50 353 43 27
127 42 381 46 28
138 49 395 50 30
138 62 345 56 32
116 66 404 56 33
131 64 386 69 35
138 65 434 112 37
118 65 439 114 39
118 64 446 120 41
118 61 447 120 43
126 58 487 123 45
121 55 487 123 47
119 53 510 146 49
125 39 545 147 51
133 27 502 152 54
127 21 501 146 56
118 21 463 115 58
121 18 455 118 60
118 18 458 117 62
112 20 502 122 64
129 28 446 112 66
128 28 420 116 68
140 32 409 101 70
144 30 382 104 72
142 34 445 129 74
151 34 451 129 75
151 43 397 115 77
147 45 421 112 79
160 43 412 111 81
164 43 362 111 82
125 36 365 113 84
133 54 385 127 85
126 57 409 133 87
151 57 409 137 88
158 87 428 168 90
162 86 431 169 91
166 86 428 173 93
168 89 388 172 94
159 118 432 204 95
165 126 459 219 97
174 122 456 216 98
173 110 410 192 99
164 100 339 171 100
162 102 324 170 101
168 100 284 150 102
168 104 280 151 103
187 99 274 145 104
188 99 271 145 105
192 80 216 118 106
190 71 130 91 107
182 103 138 122 107
181 103 112 121 108
182 101 86 120 108
167 88 85 117 109
167 88 80 123 109
156 92 86 123 109
145 91 90 98 109
144 95 90 82 109
140 96 88 92 109
153 99 88 99 109
149 64 64 71 109
135 57 64 65 108
132 46 69 65 108
130 50 73 66 107
161 63 78 59 106
162 62 74 62 105
152 61 63 62 104
168 55 57 65 103
168 51 58 59 102
165 44 58 50 101
164 44 63 48 100
162 56 83 63 98
189 65 109 78 97
189 71 106 79 95
168 63 115 71 94
173 59 106 66 92
174 60 111 66 90
167 49 122 56 88
165 35 115 43 86
160 34 108 35 84
177 46 112 42 82
177 50 112 44 80
157 50 96 34 77
155 45 99 33 75
158 42 92 27 73
155 33 90 25 70
144 25 114 23 68
148 22 145 35 65
147 21 146 34 63
142 21 193 47 60
141 20 212 51 58
138 20 211 51 55
153 23 232 52 53
153 24 236 52 50
147 24 230 50 48
145 24 232 50 46
145 24 226 55 43
152 30 212 52 41
167 39 224 64 39
166 40 191 60 37
162 42 191 62 35
169 42 227 61 33
151 56 215 61 32
160 59 203 60 30
156 61 194 61 29
158 61 189 65 27
158 61 184 65 26
137 57 158 58 25
126 57 167 50 23
123 61 255 69 22
123 61 279 63 21
116 62 318 61 21
117 44 314 64 20
120 44 297 66 20
120 51 331 63 20
123 51 361 61 20
123 57 346 62 20
119 57 330 62 20
145 50 370 63 20
142 38 379 51 20
138 32 361 51 20
142 37 293 51 21
141 36 291 54 21
139 40 305 53 22
136 50 329 59 23
126 50 325 69 23
144 70 340 61 24
149 96 402 61 25
147 96 396 61 26
147 99 354 60 27
141 109 403 61 29
139 109 414 63 30
139 111 389 59 31
125 108 442 66 33
129 99 430 57 35
130 101 464 70 36
115 94 470 69 38
113 72 436 73 40
90 88 480 90 42
113 86 481 88 44
119 85 546 106 46
127 91 625 107 48
139 89 635 122 50
142 91 606 121 52
149 90 566 128 54
144 88 571 133 57
137 92 572 133 59
165 98 647 131 61
167 87 656 124 63
163 88 662 126 65
156 86 577 118 67
148 75 447 116 69
151 75 462 102 71
148 78 507 98 73
141 78 527 90 75
144 79 487 64 77
148 70 487 68 79
130 51 398 79 81
120 52 266 70 83
120 50 312 82 85
122 34 342 89 86
124 44 369 89 88
117 48 381 94 90
116 46 384 120 91
124 46 401 133 93
127 44 410 134 94
123 50 433 147 96
114 50 449 144 97
114 51 450 142 99
112 51 426 138 100
116 49 408 130 102
114 35 375 128 103
120 33 347 124 104
122 36 311 103 105
114 40 200 82 106
129 43 154 82 107
130 39 134 69 108
143 40 102 67 109
155 58 103 85 110
151 61 97 91 110
149 65 82 92 111
149 66 78 91 112
145 66 78 91 112
155 66 74 85 112
153 60 68 65 112
139 66 62 70 113
145 65 49 60 113
146 75 60 76 112
127 81 79 88 112
123 77 73 79 112
131 69 65 72 112
131 56 70 72 111
118 48 82 65 111
128 44 90 57 110
128 42 89 50 110
136 45 91 51 109
137 45 91 51 108
128 44 88 53 107
151 37 72 42 106
156 34 70 39 105
153 34 61 40 103
169 37 61 44 102
170 38 48 43 100
158 36 34 42 99
162 28 35 31 97
157 29 47 37 96
160 33 91 53 94
155 33 96 53 92
166 30 166 63 90
159 29 207 74 88
148 30 207 74 86
148 36 263 98 84
154 38 263 98 81
145 38 273 100 79
155 41 279 103 77
158 39 273 100 75
163 38 265 98 72
163 39 302 107 70
143 37 288 99 68
152 39 242 85 65
153 37 274 90 63
161 33 295 79 61
166 31 301 80 58
166 35 295 78 56
162 32 290 74 54
153 42 290 79 52
148 42 286 75 49
159 43 250 66 47
168 58 215 69 45
184 57 210 71 43
184 60 201 75 41
170 58 122 63 39
168 63 83 71 37
166 69 83 71 35
183 69 86 74 33
182 64 103 67 31
175 61 101 66 29
175 60 101 68 27
165 54 99 63 25
151 53 95 56 24
157 47 91 44 22
166 43 89 39 21
169 41 88 31 19
169 34 86 31 18
149 33 83 29 17
153 29 63 25 16
147 31 65 26 15
145 28 67 24 14
151 25 76 21 13
167 25 76 21 12
159 29 81 21 12
135 32 85 28 12
143 34 124 36 11
142 37 178 40 11
139 41 182 43 11
140 38 188 42 12
140 27 210 41 12
135 24 215 41 12
136 22 242 43 12
113 20 250 46 13
125 21 251 45 13
124 32 266 33 14
107 41 267 44 15
134 54 207 44 16
149 60 248 39 17
142 63 299 41 19
145 63 312 49 20
149 62 312 52 22
148 59 313 58 23
138 55 340 66 25
138 51 336 71 26
143 51 314 71 28
139 53 259 67 30
133 48 316 74 32
121 39 319 79 34
139 29 286 80 36
132 29 290 77 38
115 27 384 68 40
122 29 387 68 42
122 27 380 73 44
117 27 390 76 46
121 25 391 76 49
120 34 441 87 51
119 34 428 80 53
118 35 386 80 55
106 34 367 99 57
121 47 481 131 59
121 55 467 140 61
120 54 478 143 64
151 50 503 153 66
149 48 569 167 68
155 47 572 167 70
159 56 591 177 72
151 55 597 183 75
156 57 606 191 77
154 61 686 231 79
147 91 645 217 81
147 94 622 222 83
150 92 590 215 85
139 86 599 225 87
144 86 539 216 88
159 90 534 216 90
158 90 469 200 92
161 88 346 159 94
160 92 345 156 95
167 105 246 125 97
183 82 245 125 99
183 80 189 99 100
217 140 209 168 101
206 140 155 158 103
203 142 148 159 104
182 139 139 159 105
188 146 137 162 106
183 147 136 166 107
199 148 133 168 108
189 136 132 164 109
171 129 134 164 110
175 131 135 166 111
128 74 70 51 111
130 68 70 56 111
131 73 78 65 112
128 76 83 62 112
136 64 77 60 111
135 66 76 67 111
124 58 75 67 111
125 58 71 69 111
120 59 71 69 110
134 60 70 68 109
135 54 74 72 109
146 52 79 70 108
146 52 78 62 107
149 49 83 55 105
144 53 85 56 104
149 50 84 53 103
152 54 86 55 101
162 53 82 52 100
161 52 83 52 98
149 50 84 48 97
149 58 84 57 95
132 60 142 75 93
141 49 137 64 91
141 62 164 82 89
170 84 206 99 87
167 83 214 99 85
160 93 214 101 83
153 98 214 102 80
153 97 220 101 78
152 97 220 102 76
160 94 215 95 73
160 87 161 74 71
173 90 169 89 69
177 85 163 76 66
147 59 146 48 64
153 59 156 47 62
147 48 153 46 60
155 39 177 51 57
158 39 227 68 55
156 38 233 71 53
162 37 233 72 50
162 39 233 74 48
145 25 221 57 46
150 21 219 58 44
145 20 199 54 42
146 16 157 45 40
148 16 163 41 38
155 16 199 47 36
154 15 157 40 34
146 14 150 42 32
139 11 230 52 30
146 15 271 64 28
139 16 275 65 27
150 25 275 65 25
147 26 286 66 24
140 25 310 68 22
146 24 311 68 21
134 25 301 66 20
162 25 299 54 19
163 26 298 57 18
157 29 285 65 18
190 33 269 60 17
192 36 273 59 17
193 26 273 59 16
190 20 268 59 16
188 20 299 61 16
188 17 340 62 16
181 18 332 56 16
167 27 317 49 16
174 29 325 50 16
177 32 319 47 17
154 32 318 43 17
148 30 312 46 17
145 31 318 46 18
148 36 323 44 19
146 37 290 43 20
157 41 218 42 20
158 42 203 40 21
159 40 256 48 22
161 42 299 50 23
159 40 338 61 24
143 38 316 57 26
144 41 285 48 27
133 42 301 59 29
131 39 418 70 30
131 40 418 72 32
127 33 436 74 34
124 33 431 77 36
107 44 424 75 38
124 40 470 87 40
125 63 446 75 42
146 66 432 73 44
150 67 421 65 47
155 66 424 70 49
178 62 354 69 51
179 63 364 69 53
156 63 297 53 56
158 61 274 56 58
153 47 273 56 60
156 47 186 47 62
155 31 153 47 65
161 77 140 87 67
172 78 128 88 69
178 78 117 82 71
143 81 118 88 73
139 77 140 107 75
137 77 205 126 78
146 74 196 126 80
178 78 245 133 81
179 81 270 142 83
212 80 272 141 85
211 61 272 130 87
207 56 272 131 89
185 52 279 138 91
178 56 277 135 92
168 52 247 115 94
163 39 161 75 95
160 20 148 69 97
176 27 115 58 98
185 29 82 50 99
148 30 81 50 101
135 46 64 48 102
151 47 69 49 103
146 49 48 32 104
134 43 45 39 105
135 43 44 39 106
135 45 68 65 107
134 46 69 65 108
133 46 62 64 109
128 51 63 65 109
153 59 60 64 110
150 55 60 65 111
139 60 66 96 111
169 71 82 102 112
168 72 80 97 112
172 68 76 90 112
173 69 73 86 112
175 73 77 89 112
174 72 77 90 112
171 67 72 94 112
169 59 71 96 111
168 67 77 103 111
153 65 69 75 110
165 64 59 74 110
161 59 58 59 109
156 52 59 53 108
167 41 44 33 107
167 42 50 37 106
181 42 61 45 105
184 39 61 45 104
182 37 61 45 103
205 43 63 49 101
205 38 62 45 100
187 32 77 45 98
200 25 77 43 97
195 24 87 51 95
179 25 101 61 93
175 25 101 60 91
173 25 103 62 89
165 22 103 62 87
149 15 116 62 85
152 15 116 60 83
154 15 124 62 81
143 17 110 51 78
142 15 110 51 76
143 15 113 56 74
146 14 96 40 71
151 16 154 59 69
147 17 151 59 66
155 17 153 58 63
154 15 139 57 61
147 14 137 56 58
152 14 135 54 56
146 16 140 59 53
145 18 150 65 51
157 32 146 66 48
167 32 157 69 46
175 29 113 48 43
165 36 110 46 41
171 37 112 48 39
178 37 111 48 36
172 37 100 52 34
177 36 113 56 32
177 37 120 57 30
171 37 232 66 28
164 32 379 117 26
147 47 403 127 24
153 53 391 125 22
152 53 402 125 21
137 55 404 127 20
132 64 409 133 19
126 64 399 127 18
158 64 367 116 17
157 60 366 114 17
154 62 349 117 16
159 64 261 90 16
159 52 181 66 16
138 36 172 53 16
133 29 218 61 16
131 29 233 66 17
155 24 240 66 17
155 25 242 65 17
125 28 242 75 17
133 27 256 75 18
133 27 261 75 19
135 26 195 63 20
134 24 134 49 21
130 23 101 55 22
133 34 118 54 23
131 34 119 55 24
138 41 118 64 25
138 41 192 62 26
127 45 267 61 28
129 42 304 60 29
132 39 321 59 31
123 33 400 63 33
133 41 432 61 35
136 35 431 62 37
139 35 424 62 39
139 40 499 81 41
134 53 517 83 43
131 70 521 100 45
142 75 528 101 47
138 78 511 102 50
160 76 502 103 52
199 76 427 91 54
188 61 406 91 57
177 53 404 82 59
178 59 415 75 61
176 66 365 72 63
166 66 437 110 66
166 56 460 103 68
165 48 455 104 70
174 43 523 121 72
165 44 526 120 74
125 47 579 134 76
123 47 651 140 79
128 47 639 141 81
158 37 667 167 83
160 37 673 173 85
155 46 658 172 87
152 47 632 171 89
156 61 623 171 91
167 69 566 158 93
162 68 561 158 95
150 61 517 143 97
156 76 370 132 99
153 88 369 128 101
109 109 308 115 102
126 114 286 103 104
129 118 208 100 105
131 122 150 101 107
134 140 149 109 108
120 134 123 110 109
125 132 122 109 110
124 132 122 110 112
123 130 116 111 113
126 126 131 116 114
135 105 107 96 115
129 104 128 116 116
135 132 143 166 117
137 131 135 162 118
157 110 125 154 119
158 104 118 150 119
162 102 111 149 120
209 129 135 188 120
210 118 126 175 121
235 131 137 183 121
237 161 160 195 121
226 191 190 227 121
245 187 188 213 121
243 187 188 213 120
227 183 183 211 120
226 180 179 211 120
232 175 176 207 119
147 115 120 126 119
123 112 122 114 118
154 112 122 113 117
154 96 106 97 116
155 58 80 63 115
154 42 68 47 114
163 42 68 47 113
180 40 67 46 111
182 38 63 45 110
177 39 79 48 109
201 34 74 48 107
203 25 77 46 106
150 23 77 44 104
157 20 85 45 102
158 20 80 43 100
132 21 94 48 98
133 21 132 60 96
141 22 133 60 94
154 22 136 62 92
153 14 122 53 90
157 17 140 54 87
162 17 190 75 85
162 21 189 76 82
170 22 230 84 80
167 23 291 103 77
163 23 292 103 75
176 38 287 100 72
169 46 291 101 70
159 56 291 101 67
155 63 295 100 65
146 72 280 98 62
169 83 230 83 60
173 87 236 94 58
160 91 228 101 56
167 91 167 90 53
169 92 185 92 51
155 83 184 91 49
139 69 190 84 47
147 28 200 60 45
157 49 204 61 43
169 66 212 79 41
151 71 227 92 39
150 71 226 91 37
160 63 220 85 35
162 59 202 74 33
164 67 148 67 32
161 67 146 68 30
168 65 159 69 29
175 68 177 77 27
169 70 178 77 26
152 67 160 67 25
163 51 173 47 23
168 37 185 38 22
162 31 185 34 22
159 31 201 33 21
148 33 201 38 20
145 33 204 47 20
164 33 217 58 19
170 34 216 55 19
165 32 186 47 19
162 18 194 46 18
157 15 186 58 18
150 14 172 58 18
145 12 173 59 19
144 12 161 66 19
150 14 196 68 19
157 16 217 70 19
144 17 221 73 20
115 17 283 74 21
117 15 287 74 21
119 14 327 78 22
114 14 335 75 23
118 15 341 76 24
109 15 377 75 25
122 14 402 61 27
135 25 377 57 28
134 31 354 65 29
118 51 378 80 31
117 61 371 77 32
125 61 375 75 34
122 60 354 71 36
116 83 349 70 37
128 93 387 67 39
128 94 364 62 41
135 116 461 54 43
128 118 510 57 45
139 117 516 101 47
185 111 612 149 49
184 112 665 159 52
172 123 679 162 54
179 123 670 165 56
168 97 705 168 58
129 66 712 180 60
125 73 730 180 62
123 64 676 179 64
168 73 552 166 67
174 73 631 199 69
152 76 597 169 71
159 72 542 157 73
160 50 498 148 75
189 49 498 150 77
188 52 467 151 79
188 54 427 145 81
200 56 395 144 83
201 56 271 115 85
190 51 257 121 87
183 50 187 83 88
173 45 192 83 90
188 42 196 82 92
187 42 238 99 94
157 49 251 102 95
163 50 219 76 97
161 49 203 82 99
138 48 203 99 100
139 44 192 99 101
129 43 188 97 103
145 43 185 100 104
144 40 189 101 105
130 33 186 102 106
135 31 148 94 107
123 24 102 78 109
127 24 100 83 110
126 22 85 74 111
121 26 76 82 111
120 26 79 82 112
120 53 87 107 113
104 58 84 116 114
104 61 84 120 114
109 67 85 139 115
118 66 80 131 115
113 66 81 127 115
108 65 80 115 115
116 61 80 103 115
135 74 80 117 115
136 76 69 114 114
129 75 62 112 114
140 72 55 103 114
138 69 58 99 113
118 55 62 49 112
134 55 62 50 111
129 28 57 41 110
122 32 70 46 109
133 30 71 46 108
129 26 73 39 107
137 28 72 41 105
137 25 76 38 104
135 33 78 39 102
158 33 79 40 101
158 33 74 42 99
146 31 74 42 97
156 31 73 41 95
163 30 56 38 93
154 32 62 35 91
145 32 74 33 89
163 35 72 33 87
166 35 91 37 84
156 18 121 32 82
154 18 121 33 79
155 17 121 36 77
147 16 122 37 74
150 17 119 33 72
146 18 118 34 69
140 19 112 36 67
140 19 95 32 64
125 23 91 32 62
145 28 102 41 59
144 28 93 45 57
155 37 95 45 54
160 37 99 38 52
161 36 129 35 49
168 36 131 30 47
166 36 146 30 45
164 38 158 31 42
173 40 161 31 40
166 36 163 33 38
160 31 167 25 36
160 29 157 17 34
144 24 155 17 31
167 24 154 18 29
166 25 140 22 28
171 26 157 24 26
170 27 138 18 24
166 26 107 21 23
171 21 81 20 22
169 20 81 27 20
175 20 126 26 19
172 20 175 29 19
167 20 216 29 18
171 19 218 29 17
168 14 207 33 17
152 13 201 45 16
160 18 208 44 16
160 18 228 49 16
149 23 221 50 16
149 23 240 43 16
147 33 243 43 16
151 35 268 52 16
155 32 266 52 17
135 33 256 52 17
139 32 268 61 17
133 31 313 61 18
134 38 352 66 19
135 46 340 66 20
145 46 381 88 21
140 46 411 101 22
123 40 414 101 23
140 40 434 105 24
140 40 421 107 25
134 51 412 107 27
149 50 430 110 28
150 53 414 106 30
139 58 383 97 31
144 55 382 97 33
143 56 371 89 35
158 55 298 78 37
158 60 312 85 39
147 65 284 79 41
168 72 277 76 43
175 65 276 77 45
160 71 254 54 47
151 64 285 55 50
159 59 287 49 52
149 75 355 57 54
128 75 326 63 57
125 85 322 78 59
130 100 303 76 62
151 104 318 101 64
138 99 331 105 67
139 98 370 111 69
138 95 400 111 71
148 97 359 114 74
149 91 364 120 76
146 65 347 133 79
145 59 366 132 81
147 60 365 123 83
155 47 382 125 85
144 40 364 109 88
155 51 351 115 90
145 52 352 115 92
152 58 338 128 94
147 57 356 129 95
128 57 344 123 97
150 57 318 110 99
152 53 300 110 101
154 58 300 108 102
160 57 276 106 104
159 57 258 112 105
141 64 220 103 107
141 63 165 103 108
150 88 165 114 109
165 90 124 117 110
164 90 108 134 111
158 96 105 146 112
163 103 99 154 113
154 97 95 152 114
151 99 91 146 114
155 95 77 126 115
164 93 79 115 115
168 88 78 98 115
151 76 66 103 115
159 76 57 108 114
159 82 62 105 114
139 78 63 92 114
167 65 54 61 113
170 44 52 35 112
154 43 47 34 112
157 43 45 34 111
157 29 33 33 110
155 32 31 40 108
149 35 32 43 107
154 35 32 42 106
177 32 28 38 104
175 30 28 37 103
155 17 16 20 101
154 18 16 19 99
167 17 32 32 98
165 17 32 32 96
158 21 58 39 94
178 23 102 64 92
178 25 114 68 90
147 23 116 66 88
152 22 134 70 85
153 31 198 88 83
151 31 198 88 81
155 30 211 89 78
155 42 244 91 76
151 43 247 90 74
151 43 253 90 71
133 43 251 79 69
144 44 242 73 66
141 44 244 75 64
143 44 238 75 62
143 36 184 50 59
151 39 192 54 57
150 41 184 57 54
140 26 120 47 52
144 17 88 43 50
150 20 92 44 47
142 21 73 46 45
147 22 73 46 43
147 22 68 43 40
145 31 92 44 38
153 31 98 43 36
143 31 84 43 34
152 31 80 44 32
152 33 73 38 30
146 34 93 38 28
152 34 118 38 26
152 28 129 30 24
138 42 138 46 22
144 44 143 47 21
150 44 133 46 20
146 45 133 46 18
138 43 145 39 17
138 45 146 44 16
154 48 147 45 15
172 51 139 44 14
161 54 121 41 14
172 54 93 47 13
196 38 169 43 13
185 25 194 45 13
153 10 199 41 13
158 11 246 55 13
163 19 241 56 13
150 19 267 55 13
148 19 277 55 14
139 18 276 55 14
162 17 266 55 15
153 17 266 55 15
118 19 241 51 16
133 17 221 46 17
134 19 232 53 18
114 19 194 52 19
118 19 194 51 20
118 19 210 63 21
120 19 217 66 22
121 20 216 66 23
111 30 242 73 24
117 30 249 75 26
116 28 246 76 27
119 30 247 76 28
120 26 235 71 30
120 27 227 60 31
127 34 252 68 33
123 37 194 57 35
118 37 222 52 37
119 37 267 54 38
130 28 248 48 40
127 27 238 40 42
123 28 231 41 44
113 25 231 41 46
180 36 257 43 48
206 36 248 44 50
196 30 230 65 53
196 28 228 69 55
197 31 308 89 57
194 30 414 132 59
181 34 407 132 61
162 33 475 148 62
176 35 523 156 65
183 35 532 157 66
157 29 540 162 68
130 30 547 163 70
142 47 521 143 72
144 48 528 145 74
144 45 492 139 76
143 56 364 99 78
140 58 371 107 79
144 57 310 85 81
143 57 244 59 83
140 58 252 77 84
128 61 228 81 86
127 67 201 82 87
115 64 204 80 89
116 60 209 83 90
112 68 216 89 91
149 74 213 91 93
146 71 181 82 94
145 72 179 77 95
144 71 172 77 96
142 71 143 70 97
138 70 108 58 98
141 64 79 47 99
139 57 83 50 99
142 60 69 51 100
142 53 54 42 101
135 52 63 51 102
137 57 67 57 102
131 54 67 65 103
136 54 59 62 103
145 63 66 76 104
142 62 66 77 104
149 64 70 94 104
151 65 69 100 105
138 74 80 109 105
139 69 78 98 105
118 66 72 98 105
133 66 75 103 105
132 67 75 105 104
125 72 83 110 104
127 60 71 93 104
126 64 71 98 103
121 64 69 90 103
118 60 65 77 102
126 27 41 31 101
124 26 45 28 100
119 25 51 36 99
123 26 51 35 98
123 26 51 35 97
122 22 40 30 96
135 19 45 31 95
133 18 46 29 93
141 20 44 29 92
144 19 46 30 90
138 23 47 32 89
152 26 49 38 87
152 27 50 35 85
146 28 52 39 83
155 28 59 39 81
158 25 59 43 79
157 23 81 40 77
159 26 103 39 75
162 26 119 41 73
169 32 134 46 70
168 32 139 46 68
161 30 138 44 66
164 28 145 43 63
155 50 145 38 61
162 55 156 38 59
158 62 158 35 56
144 62 151 35 54
144 59 136 35 51
130 59 116 32 49
137 55 112 34 46
136 58 110 38 44
149 57 131 46 41
148 53 123 50 39
145 42 132 53 37
147 38 117 53 35
149 29 112 53 32
139 28 113 53 30
145 29 139 58 28
148 30 184 60 26
161 29 185 53 24
161 25 187 48 23
147 24 179 44 21
145 34 179 43 19
152 36 174 41 18
158 41 178 43 17
163 41 174 43 15
172 44 182 43 14
159 43 235 64 14
167 42 211 61 13
153 38 208 60 12
155 40 209 59 12
152 47 233 59 12
162 50 238 71 12
153 47 268 75 12
127 40 292 75 12
132 38 282 74 13
127 38 282 74 13
135 38 253 53 14
129 35 260 46 14
123 35 243 50 15
145 39 237 55 16
145 51 185 55 17
133 42 187 46 18
139 47 231 46 19
135 50 226 39 20
130 50 222 44 21
131 50 236 52 23
132 52 232 56 24
134 54 189 54 25
129 53 195 54 27
127 52 199 55 28
126 35 204 56 30
128 23 206 58 32
136 23 191 56 33
139 32 159 54 35
131 34 154 58 37
134 33 212 61 39
135 37 274 60 41
204 37 281 68 43
204 37 295 80 45
188 37 316 80 47
192 38 327 80 49
193 39 351 84 51
178 39 343 82 53
167 35 312 82 56
167 38 306 80 58
187 50 309 77 60
193 48 305 75 62
130 45 302 68 64
130 50 297 66 66
153 48 283 65 68
179 52 280 64 70
178 57 251 61 73
177 65 281 60 74
188 67 328 69 76
190 67 324 69 78
190 64 328 70 80
186 65 281 54 82
182 66 252 55 84
200 62 299 69 86
184 61 327 73 88
158 59 326 86 89
155 54 324 92 91
158 44 294 98 93
156 43 231 92 94
150 42 234 93 96
133 53 231 91 97
137 48 230 93 99
145 57 242 103 100
129 57 207 92 101
122 59 171 89 102
137 76 178 91 104
138 69 173 80 105
127 60 142 59 106
119 68 142 66 107
125 65 135 70 108
122 67 103 69 109
129 58 105 70 110
123 77 99 72 110
131 88 101 82 111
130 96 108 112 112
106 82 91 111 112
111 77 79 113 112
111 78 67 107 113
114 80 70 109 113
115 103 101 135 113
115 93 94 127 113
126 95 103 122 113
126 94 103 124 113
112 90 103 124 112
130 86 95 111 112
130 81 85 97 112
131 77 88 84 111
137 58 82 63 110
144 57 90 63 110
152 35 77 28 109
150 35 79 29 108
151 35 79 31 107
157 35 83 31 106
151 36 88 31 104
148 31 87 32 103
147 20 94 26 102
155 23 88 31 100
150 25 99 32 99
137 24 94 32 97
154 25 87 38 96
153 23 99 42 94
138 12 93 35 92
157 12 97 34 90
158 13 98 30 88
163 11 98 30 86
164 9 106 35 85
162 11 115 36 83
165 10 102 33 80
163 10 96 34 78
158 10 101 34 76
174 20 111 35 74
170 21 112 34 71
162 20 107 33 69
159 18 96 34 67
156 23 91 38 65
160 23 102 39 62
150 24 99 39 60
158 23 108 37 58
160 22 103 38 56
150 20 132 38 53
156 28 159 38 51
155 25 166 44 49
158 25 170 47 47
162 25 162 45 45
156 27 158 41 43
162 27 163 41 41
162 27 171 41 39
160 30 185 46 38
161 30 210 47 36
162 41 191 50 34
150 39 194 62 33
151 38 220 66 32
152 38 235 65 30
157 38 235 65 29
154 39 240 66 28
152 39 238 66 27
152 39 233 67 26
143 34 212 63 25
160 32 175 56 24
160 26 187 55 24
159 12 160 52 23
165 35 135 58 23
157 36 129 65 22
156 36 164 66 22
153 34 148 62 22
144 34 152 67 22
152 34 179 66 22
149 35 190 66 22
133 38 187 62 22
133 38 174 62 23
136 38 216 61 23
127 21 233 49 24
114 23 221 36 24
122 33 253 34 25
124 33 260 32 25
136 34 261 35 26
133 33 255 43 27
136 31 278 44 28
147 33 280 55 29
155 33 365 67 30
144 37 365 66 31
147 63 357 66 32
146 63 469 84 33
135 61 460 88 35
141 69 485 100 36
130 70 504 103 38
143 75 505 101 39
140 75 508 101 41
120 73 573 95 43
123 74 547 94 44
125 78 607 122 46
124 64 676 125 48
133 64 593 107 50
129 63 590 116 51
119 45 589 113 53
116 40 582 112 55
107 38 603 116 57
113 40 639 133 59
126 62 581 147 61
120 68 670 186 62
120 72 629 178 64
125 72 571 182 66
113 72 559 180 68
108 79 629 182 70
107 84 772 194 71
121 81 767 204 73
142 80 786 221 75
142 80 734 203 77
130 72 736 198 79
129 66 718 182 80
136 42 763 185 82
130 34 738 183 84
130 32 758 191 85
132 45 755 202 87
151 43 581 180 88
141 45 563 177 90
104 44 526 155 91
111 44 522 156 93
119 45 523 154 94
121 45 466 136 96
121 44 347 105 97
119 34 341 106 98
124 33 316 109 99
125 29 256 73 101
114 26 266 74 102
124 33 268 74 103
124 36 303 74 104
130 36 311 74 105
138 33 299 78 106
140 36 316 86 107
150 40 278 68 108
150 40 274 71 109
165 50 277 78 109
182 74 244 76 110
174 73 223 78 111
171 81 224 93 111
179 88 190 131 112
170 90 138 130 112
174 87 138 126 112
166 81 100 110 112
161 81 100 109 112
170 89 101 117 112
165 84 94 104 112
146 79 97 115 112
146 79 100 116 112
153 69 100 110 112
139 46 100 46 112
139 49 100 49 111
143 48 98 48 111
146 43 95 45 110
140 42 95 46 109
151 43 90 50 108
144 38 75 51 107
150 27 68 38 106
152 26 52 38 105
146 25 80 34 104
162 19 74 30 103
155 19 77 32 102
145 19 78 33 100
151 19 84 38 99
158 25 93 53 98
150 22 99 49 96
143 21 98 50 94
153 21 97 49 93
150 21 100 51 91
142 21 86 53 89
158 21 85 53 88
159 20 112 55 86
161 21 125 56 84
167 20 125 51 82
161 19 121 39 80
161 18 116 39 78
162 23 118 38 76
156 23 134 39 74
179 26 152 38 72
178 25 146 30 70
170 25 146 30 68
179 25 133 24 66
180 26 142 31 63
186 26 141 32 61
186 23 138 32 59
178 25 130 39 57
184 25 135 40 55
176 32 141 50 53
181 32 123 50 51
184 31 149 51 48
176 30 149 49 46
175 31 217 53 44
169 32 224 50 42
171 39 237 62 40
170 53 299 85 38
164 54 327 88 36
165 52 327 92 34
165 46 335 87 33
143 42 337 87 31
148 42 328 87 29
140 46 328 90 28
178 60 301 101 26
183 65 322 105 25
161 62 323 98 24
164 50 273 80 23
164 49 242 74 22
186 55 251 79 21
186 55 239 78 20
179 53 241 78 19
178 53 244 77 18
177 52 248 76 18
165 46 254 58 17
162 50 279 45 17
160 51 314 41 17
174 49 313 35 17
175 51 332 30 17
154 49 390 28 17
155 50 431 31 17
155 50 441 39 18
147 53 447 45 18
149 55 443 45 18
131 53 438 44 19
147 47 407 45 20
152 52 322 42 21
131 55 327 44 21
139 53 390 52 22
130 52 362 61 23
134 53 297 57 25
133 53 268 43 26
138 47 379 73 27
132 42 379 76 28
115 54 452 85 30
118 53 542 89 31
116 61 533 90 33
118 62 566 103 34
111 67 560 102 36
104 67 568 100 38
125 67 631 115 40
125 67 652 113 42
120 67 655 122 44
135 69 680 122 46
142 64 641 116 48
122 65 506 101 50
128 53 499 110 52
131 33 496 109 54
149 33 516 121 56
152 43 518 122 58
143 44 467 126 60
157 53 435 128 62
165 71 385 116 64
157 72 332 122 66
157 71 392 134 68
164 70 394 124 70
151 56 512 157 71
148 51 510 157 73
145 46 501 141 75
159 46 490 142 77
180 46 490 146 79
175 45 490 155 81
164 36 518 160 82
165 38 516 159 84
161 43 508 164 86
150 43 531 179 87
151 47 421 157 89
121 47 418 157 91
136 49 407 153 92
133 56 382 154 94
105 54 406 162 95
127 49 409 154 97
129 49 349 143 98
125 50 318 141 99
132 47 294 126 100
131 51 238 108 101
136 46 227 106 103
143 47 220 106 104
140 47 192 103 105
156 65 197 97 106
157 73 151 73 106
155 72 99 45 107
168 74 86 42 108
162 82 93 93 109
176 90 89 131 109
175 98 89 141 110
169 95 74 136 110
167 100 70 135 110
162 100 68 134 110
166 78 52 130 111
164 84 54 135 110
153 87 54 129 110
157 89 54 129 110
157 82 64 121 110
137 71 58 84 110
146 31 46 33 109
150 24 80 32 109
153 28 98 41 108
152 27 99 40 107
147 25 107 38 106
149 21 106 36 105
142 20 106 36 104
151 19 106 33 103
154 20 99 28 102
157 19 94 27 101
150 19 96 28 99
144 19 95 28 98
159 17 66 19 96
161 17 66 19 95
150 16 61 14 93
169 16 119 40 91
169 18 159 52 89
146 18 190 60 88
155 16 189 61 86
153 15 199 66 84
158 16 198 66 82
159 15 183 64 80
158 16 179 63 78
158 12 187 66 76
152 12 186 67 74
143 13 173 61 71
146 13 152 53 69
148 14 80 35 67
149 14 90 40 65
142 19 111 34 63
151 22 112 37 61
153 22 108 31 59
143 23 129 39 56
150 23 171 46 54
150 25 172 45 52
152 27 174 53 50
155 27 157 52 48
146 35 150 53 46
162 35 156 50 44
162 37 152 52 42
144 35 146 48 40
145 34 152 48 38
140 34 149 45 36
158 35 105 42 35
158 31 90 42 33
157 26 90 35 31
157 27 174 43 29
160 30 263 63 28
160 31 286 65 26
163 32 285 64 25
182 32 285 65 23
177 33 287 66 22
198 36 307 71 21
193 37 304 65 19
215 44 290 76 18
227 60 304 85 17
225 60 292 86 16
222 68 252 93 15
200 84 226 100 14
211 92 226 101 13
199 96 231 103 13
203 98 245 106 12
182 100 301 120 12
176 102 323 121 11
157 92 314 104 11
126 62 348 86 11
130 27 381 73 11
138 32 382 79 11
139 31 449 89 11
131 29 452 92 11
129 28 466 109 11
125 28 510 122 11
124 32 488 109 11
110 30 457 106 11
126 30 458 106 12
126 30 422 104 12
122 31 393 104 13
129 30 406 98 14
129 30 320 97 15
114 33 275 103 16
119 32 286 103 17
122 25 290 114 18
127 34 372 136 19
127 40 400 139 21
117 40 402 139 22
132 42 459 143 24
129 44 507 140 25
132 45 505 141 27
134 44 511 123 28
140 38 516 110 30
143 30 517 108 32
142 30 514 111 33
134 34 454 97 35
151 44 435 94 37
198 48 485 91 39
197 47 424 78 41
193 46 340 93 43
189 47 559 113 45
244 51 605 99 48
258 55 609 146 50
255 52 709 170 52
251 55 712 175 54
257 58 779 224 56
254 55 777 227 59
198 55 778 247 61
207 71 806 276 63
206 78 807 272 65
223 78 733 275 68
181 79 690 276 70
178 79 722 276 72
187 79 658 274 74
204 73 658 270 76
212 70 598 235 78
202 64 583 224 80
199 64 553 216 82
185 51 512 190 84
195 39 494 187 86
187 42 416 160 88
194 40 403 152 90
177 36 311 121 91
167 37 239 101 93
159 39 231 98 94
133 41 137 59 96
156 37 103 58 97
164 53 94 53 98
163 54 53 40 99
156 58 53 69 101
157 58 57 70 102
151 56 52 71 103
155 59 56 77 104
167 76 76 111 105
162 80 78 119 105
163 86 86 131 106
155 86 86 131 107
159 76 79 127 107
149 73 76 126 107
157 63 59 90 108
165 71 71 103 108
160 70 73 102 108
161 70 73 102 108
143 60 60 85 107
156 58 61 79 107
152 52 53 62 107
138 54 57 60 106
158 54 60 61 106
159 57 57 63 105
139 50 54 61 104
152 48 53 55 103
159 40 53 54 102
153 35 51 50 101
145 17 42 32 100
143 14 28 26 99
138 14 25 26 97
152 23 43 31 96
135 31 71 43 94
156 44 72 44 93
180 42 82 37 91
167 40 84 35 89
152 39 102 41 88
160 38 105 42 86
154 37 119 48 84
144 45 139 60 82
150 46 138 57 80
145 46 139 57 77
141 47 134 53 75
135 38 136 55 73
113 41 130 65 70
135 41 151 63 68
133 42 138 55 66
135 47 134 48 63
135 52 128 57 61
130 57 112 61 59
152 59 117 68 56
152 61 115 68 54
149 68 107 69 52
157 67 95 67 49
154 56 92 49 47
129 46 72 49 45
127 30 91 56 43
121 34 84 58 40
150 39 88 57 38
159 38 87 56 36
130 37 79 51 34
132 36 88 53 32
132 23 89 52 30
148 24 88 49 28
150 24 88 50 26
151 24 90 49 24
147 31 104 40 23
159 35 104 40 21
184 35 110 40 20
183 37 106 35 19
181 37 103 29 17
183 37 106 30 17
180 31 111 33 16
149 24 125 42 15
138 19 125 43 15
137 20 200 56 14
159 19 248 65 14
153 18 248 65 14
104 18 309 81 14
110 20 358 93 14
112 21 366 99 14
102 33 365 97 14
103 33 367 98 14
115 35 365 96 14
124 32 367 95 15
121 27 329 82 15
126 27 271 68 15
130 33 281 66 16
120 31 282 64 17
120 32 203 46 17
121 33 208 35 18
142 33 345 59 19
140 36 396 78 20
123 42 408 79 20
126 42 417 77 22
127 46 432 82 23
116 46 424 80 24
120 46 573 111 25
126 50 652 123 27
135 50 646 123 28
137 54 711 148 30
123 48 725 146 32
156 58 713 138 33
158 57 712 137 35
154 57 705 136 37
156 52 680 134 39
157 52 680 135 41
164 52 600 119 43
156 50 519 115 45
154 55 529 118 48
158 59 404 81 50
153 61 245 76 52
140 49 192 70 54
152 44 204 69 56
175 40 299 86 58
172 40 302 85 60
164 39 303 86 62
169 41 290 98 64
168 47 251 91 66
155 54 221 92 68
168 53 239 92 70
158 57 256 90 71
148 55 317 99 73
155 51 334 109 75
139 57 315 99 77
165 53 323 98 79
167 53 313 98 81
178 54 321 83 83
191 51 342 86 85
193 45 342 88 86
214 39 328 88 88
224 24 317 85 89
218 25 236 80 91
218 25 163 69 92
216 24 162 68 94
203 36 162 73 95
206 39 162 79 97
180 42 146 79 98
179 42 106 81 99
178 45 119 88 100
156 55 94 95 101
167 52 91 90 102
193 111 127 139 103
183 114 122 151 104
185 123 126 180 104
193 118 119 175 105
184 115 109 166 105
179 109 99 160 106
178 110 98 149 106
181 111 93 151 106
165 95 73 111 106
165 89 71 106 106
148 55 50 97 106
155 56 54 97 106
146 43 57 55 105
131 44 57 52 105
161 33 45 38 104
167 37 45 37 104
146 37 45 36 103
157 38 48 36 102
157 39 48 43 101
148 38 52 43 100
145 39 54 43 99
144 39 57 42 97
147 39 58 38 96
151 39 58 38 95
130 38 80 43 93
130 34 89 45 92
152 33 113 51 90
141 34 128 64 89
138 26 215 98 87
152 25 235 108 85
148 26 236 108 83
132 25 237 109 81
144 19 233 106 80
143 20 232 106 78
140 20 224 102 76
142 24 221 101 74
128 33 223 108 72
114 43 225 105 70
114 43 160 74 68
100 45 125 53 66
111 45 138 54 64
109 55 154 61 62
104 57 157 61 60
104 59 159 60 58
96 58 160 61 56
95 54 171 64 54
95 39 150 42 52
113 38 147 43 50
113 32 144 37 48
105 32 143 37 46
113 32 137 38 44
112 28 132 40 42
104 28 128 40 40
109 23 114 40 38
114 25 115 41 36
130 23 96 32 34
128 20 73 21 33
118 21 73 21 31
132 20 77 22 29
130 20 74 22 28
135 23 160 73 26
135 44 215 79 25
129 45 215 78 23
139 43 280 87 22
139 44 341 98 21
117 49 361 99 20
137 49 360 99 19
141 45 365 106 19
129 45 371 106 18
128 46 368 108 18
122 46 323 78 18
140 31 292 76 18
151 29 378 89 18
145 31 391 92 18
148 29 340 84 18
155 22 463 110 19
134 20 557 125 19
119 23 556 122 19
134 39 589 126 20
135 46 596 126 21
126 42 601 132 22
132 39 590 127 23
130 39 559 120 24
124 41 608 122 25
130 43 622 122 26
128 45 569 112 27
138 53 525 98 28
138 53 528 101 30
125 43 495 95 31
138 34 493 99 33
138 33 496 92 34
143 34 523 95 36
143 33 590 102 37
138 33 529 99 39
144 33 514 102 40
151 30 499 93 42
202 23 474 89 44
204 34 497 87 46
197 33 494 88 47
207 35 486 76 49
207 37 480 74 51
189 38 451 70 53
189 39 340 54 55
184 41 353 45 57
191 41 355 38 59
191 42 321 35 62
144 39 273 35 64
172 22 211 33 66
176 27 205 33 67
153 50 255 81 70
155 53 325 100 71
153 51 325 96 73
157 48 393 118 75
158 43 451 130 77
141 42 448 130 79
160 43 461 134 80
184 41 457 139 82
166 49 471 157 83
159 51 472 157 85
163 35 452 144 86
161 27 376 128 88
158 29 378 128 89
159 29 340 119 91
154 35 221 108 92
153 38 213 108 93
160 48 198 107 94
139 48 187 98 95
148 37 113 46 97
169 45 111 39 97
166 43 75 61 98
195 79 104 118 99
199 97 120 137 100
189 104 116 136 101
196 102 108 133 101
195 101 104 130 102
174 92 99 120 102
174 92 99 114 102
168 96 101 113 102
160 84 85 99 102
157 82 79 99 102
126 74 65 77 102
123 57 51 51 101
139 46 46 55 101
122 46 46 56 100
121 46 46 55 100
142 43 39 39 99
134 42 62 41 98
124 39 63 41 97
122 38 82 50 96
122 35 80 47 95
134 32 86 44 94
134 26 83 44 92
128 26 99 41 91
154 27 111 41 90
156 27 117 43 88
129 29 149 43 87
140 29 141 39 85
144 29 146 40 84
128 29 143 36 82
129 29 146 43 80
130 30 156 50 78
132 35 156 50 77
120 37 150 54 75
115 37 136 53 73
121 38 136 53 71
122 37 110 55 69
117 39 114 53 67
115 41 105 51 65
119 47 128 55 63
117 49 128 54 61
107 48 127 47 59
109 41 138 47 57
115 48 137 47 55
127 60 137 54 53
128 61 132 53 51
127 62 133 52 49
135 62 131 52 47
138 62 133 53 45
136 49 92 42 43
138 38 86 33 40
144 40 76 38 38
150 55 60 42 36
144 56 62 47 34
120 48 68 43 32
127 47 67 38 30
127 45 73 35 28
118 41 73 34 27
122 42 79 36 25
116 41 97 37 23
124 41 97 36 22
121 42 103 37 20
112 38 104 38 19
114 39 104 37 18
115 40 104 61 17
128 35 105 60 16
129 35 87 60 15
114 35 90 59 14
121 31 90 58 13
123 26 64 60 12
118 25 72 58 12
120 25 66 55 11
117 19 96 57 11
130 21 160 62 10
132 17 156 40 10
117 27 184 42 10
124 27 198 43 10
123 25 201 56 10
117 23 201 56 10
117 22 236 60 10
115 22 253 63 10
123 20 256 65 10
123 15 265 72 11
116 15 229 73 11
119 15 226 75 11
116 10 219 74 12
118 17 218 75 12
118 18 237 75 13
119 21 243 77 14
133 44 233 74 15
130 51 241 73 15
122 55 252 68 16
128 54 310 49 18
132 54 309 49 19
133 53 300 50 20
125 50 317 53 21
134 45 317 44 23
141 43 291 40 24
136 45 263 36 25
137 40 258 36 27
136 37 259 52 29
142 35 269 53 30
147 35 171 54 32
142 35 186 74 34
143 34 226 77 36
147 34 303 94 38
147 28 425 106 40
139 38 442 121 42
131 47 455 119 44
124 50 467 118 46
177 52 519 118 48
216 52 560 114 50
208 53 555 107 52
203 52 588 87 54
214 46 632 101 56
211 58 619 103 58
205 70 490 94 61
200 66 484 72 63
206 60 460 65 65
209 62 496 63 67
191 56 501 64 69
144 56 473 65 71
159 56 478 68 73
162 58 428 63 75
146 59 327 54 77
180 54 135 39 79
173 41 131 48 81
174 43 119 49 83
173 42 99 49 85
181 33 86 48 86
202 32 87 48 88
211 61 94 95 89
207 65 96 104 91
214 65 87 107 92
210 70 87 111 93
188 69 87 111 94
184 74 78 107 95
184 74 81 113 95
204 75 82 114 96
202 74 81 116 96
170 76 84 118 97
150 35 37 46 97
151 34 35 48 97
142 34 42 59 97
142 34 40 59 97
133 35 40 60 97
143 38 40 61 97
145 36 35 50 96
132 34 33 43 96
132 34 34 42 95
146 26 28 29 95
144 24 28 29 94
124 22 30 31 93
129 22 24 27 92
129 24 35 28 91
108 26 44 30 90
111 22 44 25 89
111 24 46 26 88
142 25 46 26 87
142 26 66 30 85
127 26 76 31 84
146 26 83 35 82
148 27 105 39 81
129 30 118 42 79
136 29 115 42 77
137 27 116 43 76
151 38 117 49 74
150 40 126 52 72
133 45 128 58 70
140 46 116 55 68
139 45 123 58 66
139 46 123 56 65
139 54 105 56 63
141 55 86 52 61
133 57 86 52 59
128 56 104 54 57
121 47 117 49 55
123 47 123 51 53
135 41 121 48 51
133 45 120 49 49
132 45 98 42 47
132 44 93 42 45
148 43 92 41 43
156 44 77 43 41
161 36 64 36 39
166 43 94 56 38
167 49 105 65 36
163 56 110 67 34
150 53 113 62 32
158 46 117 59 31
157 47 109 47 29
145 51 132 47 28
137 56 187 53 26
132 60 211 59 25
140 59 213 58 23
147 58 210 51 22
161 57 207 45 21
160 60 190 39 20
165 60 180 40 19
165 61 168 40 18
168 53 169 38 17
163 42 164 38 16
166 41 119 30 16
163 40 64 22 15
144 36 47 21 15
143 35 51 19 14
117 36 58 20 14
134 19 70 11 14
126 27 91 11 13
114 27 85 12 13
117 26 90 13 13
116 31 197 42 13
128 31 215 43 13
131 33 226 43 13
127 37 231 49 13
136 41 266 50 13
136 39 280 59 14
128 44 259 59 14
132 54 296 63 14
131 54 326 63 15
139 54 327 65 16
138 52 311 63 17
122 60 329 64 18
135 72 348 69 19
134 67 347 64 20
129 59 414 63 21
130 58 426 59 22
129 63 427 62 24
130 60 395 57 25
129 59 367 53 27
124 66 367 51 28
130 67 367 47 30
129 65 342 45 32
152 59 287 61 34
151 63 289 61 36
136 62 243 70 38
149 68 285 100 40
148 69 331 108 42
170 74 307 106 44
173 77 312 106 47
168 76 312 105 49
190 76 332 108 51
190 76 306 107 53
156 65 341 91 56
166 53 367 90 58
168 48 384 92 60
162 47 361 75 62
154 46 331 71 64
142 33 398 95 66
155 16 416 98 68
156 16 410 97 69
146 19 383 92 71
152 22 390 94 73
185 22 359 88 75
