1908 2042 2035 2036 0
2124 2049 2017 1997 0
2139 2062 2065 2079 0
1921 2064 2056 2088 0
2063 2051 2035 2079 0
2172 2049 2003 2025 0
1958 2060 2057 2051 0
1987 2056 2038 2051 0
2197 2060 2043 2074 0
2033 2061 2037 2036 0
1926 2045 2047 2042 0
2170 2061 2055 2061 0
2109 2072 2072 2095 0
1892 2043 2013 2028 0
2134 2086 2075 2089 0
2149 2041 2029 2033 0
1925 2065 2099 2067 0
2028 2046 1999 1975 0
2209 2064 2025 2034 0
1967 2059 2029 2058 0
1965 2050 2027 2003 0
2187 2046 2078 2098 0
2043 2066 2040 2087 0
1910 2055 2031 2063 0
2168 2061 2026 2047 0
2115 2057 2143 2123 0
1900 2053 2017 2006 0
2087 2058 2053 2088 0
2182 2061 2020 2057 0
1936 2051 2057 2005 0
2015 2051 2053 2054 0
2190 2045 2008 1993 0
1993 2059 2044 2082 0
1947 2050 2006 2043 0
2202 2063 2067 2074 0
2067 2070 2068 2089 0
1915 2072 2023 2033 0
2153 2062 2061 2046 0
2137 2075 2081 2104 0
1905 2054 2035 2007 0
2086 2060 2077 2107 0
2185 2052 2049 2063 0
1943 2048 2025 2048 0
2013 2061 2021 1971 0
2219 2064 2020 2098 0
1994 2059 2054 2085 0
1940 2053 2066 2077 0
2183 2062 2037 2048 0
2079 2063 2050 2044 0
1906 2054 2017 2066 0
2125 2043 2037 2033 0
2158 2057 2061 2049 0
1915 2061 2043 2032 0
2063 2058 2058 2075 0
2182 2046 2029 2033 0
1951 2055 2036 2019 0
1996 2076 2025 2049 0
2194 2058 2022 2010 0
2020 2054 2008 1995 0
1934 2056 2033 2078 0
2166 2049 2061 2115 0
2098 2065 2062 2112 0
1919 2059 2058 2018 0
2113 2058 2028 2036 0
2153 2051 2047 2075 0
1922 2059 2040 2079 0
2054 2067 2027 2014 0
2196 2065 2083 2068 0
1967 2064 2016 2029 0
1971 2059 2067 2082 0
2162 2031 2031 2043 0
2042 2056 2051 2040 0
1923 2054 2032 2024 0
2152 2055 2025 2037 0
2113 2055 2037 2083 0
1911 2059 2030 2067 0
2067 2036 2039 2044 0
2191 2065 2033 2020 0
1931 2062 2026 2005 0
2011 2053 2060 2079 0
2188 2035 1982 2007 0
1981 2053 2044 2075 0
1947 2055 2024 2016 0
2205 2061 2050 2082 0
2049 2053 2051 2054 0
1901 2046 2037 2063 0
2143 2056 2023 2023 0
2129 2057 2054 2035 0
1885 2033 2038 2056 0
2067 2047 2013 2028 0
2180 2054 2043 2049 0
1933 2051 2045 2057 0
1984 2031 2020 2001 0
2212 2071 2111 2090 0
1995 2052 2026 2034 0
1935 2056 2042 2051 0
2179 2043 1999 1991 0
2072 2059 2036 2050 0
1897 2053 2048 2080 0
2137 2061 2046 2055 0
2135 2041 2044 2045 0
1905 2049 2015 2019 0
2063 2058 2034 2067 0
2192 2054 2047 2046 0
1946 2043 2032 2016 0
1996 2047 2061 2053 0
2179 2035 2040 2057 0
2042 2078 2059 2095 0
1925 2059 2051 2073 0
2178 2062 2033 2029 0
2107 2068 2078 2063 0
1913 2071 2039 2056 0
2118 2072 2052 2072 0
2173 2069 2051 2057 0
1906 2032 2015 2001 0
1999 2015 2020 2049 0
2164 2021 1981 1992 0
1928 2030 2022 2020 0
1977 2062 2035 2047 0
2201 2061 2063 2052 0
2067 2088 2089 2128 0
1955 2088 2099 2144 0
2191 2088 2087 2104 0
2147 2099 2064 2072 0
1939 2081 2105 2082 0
2125 2096 2089 2111 0
2156 2065 2031 2079 0
1953 2065 2039 2066 0
2008 2049 2034 2026 0
2197 2063 2050 2041 0
1977 2053 2053 2073 0
1959 2056 2047 2086 0
2171 2035 2014 2033 0
2057 2061 2069 2073 0
1920 2043 2044 1994 0
2122 2038 2046 1996 0
2141 2055 2035 2100 0
1913 2064 2048 2064 0
2076 2051 2039 2072 0
2185 2047 2027 2029 0
1934 2047 2049 2049 0
1994 2049 2023 2042 0
2195 2045 2010 2033 0
1988 2043 2023 2018 0
1947 2057 2022 2027 0
2176 2052 2027 2015 0
2089 2066 2066 2067 0
1921 2070 2041 2034 0
2169 2096 2099 2146 0
2200 2097 2056 2063 0
1945 2088 2090 2107 0
2071 2069 2040 2037 0
2210 2085 2091 2084 0
1966 2069 2073 2040 0
2002 2081 2043 2081 0
2226 2082 2068 2107 0
2038 2080 2049 2095 0
1955 2082 2061 2077 0
2189 2071 2069 2062 0
2091 2055 2041 2051 0
1889 2039 2029 2040 0
2081 2040 2013 2026 0
2147 2042 2022 2034 0
1905 2038 1990 1999 0
2040 2050 2044 2047 0
2190 2045 2025 2032 0
1987 2079 2110 2149 0
1974 2062 2039 2039 0
2210 2077 2022 2036 0
2054 2069 2023 2040 0
1928 2071 2045 2054 0
2198 2096 2139 2150 0
2150 2088 2069 2112 0
1956 2109 2109 2116 0
2154 2120 2100 2120 0
2253 2140 2118 2105 0
1983 2095 2099 2072 0
2028 2065 2046 2038 0
2180 2032 2095 2126 0
1935 2016 1964 1991 0
1889 1995 1976 2005 0
2140 2003 1979 1975 0
1995 1991 1983 1956 0
1855 2001 1974 1989 0
2092 2005 1990 2011 0
2082 2011 1943 2003 0
1867 2013 2022 2038 0
2044 2021 2002 2018 0
2161 2036 2038 2031 0
1919 2037 2051 2057 0
1983 2021 1994 1985 0
2210 2065 2089 2093 0
2035 2088 2061 2096 0
1949 2068 2031 2060 0
2209 2075 2051 2080 0
2086 2065 2045 2041 0
1905 2070 2061 2047 0
2159 2072 2069 2073 0
2165 2070 2057 2074 0
1908 2061 2052 2074 0
2093 2091 2069 2090 0
2223 2082 2065 2078 0
1927 2038 2027 2023 0
1913 1989 1980 1989 0
2117 1965 1965 1955 0
1950 2001 2010 2009 0
1854 1998 1981 1967 0
2146 2034 2044 2072 0
2077 2034 2010 2024 0
1859 2034 2017 2042 0
2108 2052 2042 2034 0
2140 2045 2047 2036 0
1912 2057 2050 2041 0
2018 2034 2036 2036 0
2211 2065 2060 2051 0
1947 2032 2021 2017 0
1978 2059 2051 2069 0
2208 2063 2043 2050 0
2051 2068 2099 2096 0
1928 2064 2045 2018 0
2177 2059 1987 1998 0
2145 2087 2057 2143 0
1898 2061 2023 2087 0
2097 2047 1999 2059 0
2175 2037 2021 2038 0
1878 2016 2008 2022 0
1991 2023 2010 2029 0
2200 2044 2031 2036 0
1983 2061 2050 2053 0
1974 2082 2087 2078 0
2235 2093 2083 2080 0
2109 2107 2088 2089 0
1973 2112 2095 2106 0
2227 2112 2101 2106 0
2195 2122 2112 2109 0
1957 2105 2093 2101 0
2113 2077 2067 2068 0
2174 2057 2079 2078 0
1930 2057 1968 1977 0
2006 2070 2045 2073 0
2216 2081 2031 2066 0
2009 2067 2054 2059 0
1949 2083 2074 2085 0
2223 2098 2070 2082 0
2123 2087 2052 2068 0
1921 2065 2064 2066 0
2188 2100 2071 2087 0
2201 2105 2091 2112 0
1953 2103 2078 2107 0
2102 2088 2060 2085 0
2201 2068 2063 2072 0
1928 2053 2032 2044 0
2007 2066 2043 2048 0
2182 2045 2023 2031 0
1981 2035 2020 2025 0
1933 2063 2067 2068 0
2173 2051 2019 2063 0
2073 2052 2000 2046 0
1926 2065 1995 2042 0
2063 2020 2002 2024 0
2170 2068 2066 2066 1
1916 2049 2080 2058 1
2061 2058 2037 2046 1
2224 2061 2016 2038 1
1950 2052 1999 2059 1
1976 2071 2031 2068 1
2217 2067 2072 2071 1
2036 2056 2081 2048 1
1873 2012 2044 2000 2
2136 2027 2001 2015 2
2095 2052 1934 2015 2
1875 2041 1888 2017 2
2096 2041 1972 2048 3
2168 2051 2078 2075 3
1923 2073 2129 2082 3
2033 2072 2078 2064 4
2211 2057 2034 2044 4
1987 2070 2078 2071 4
1961 2082 2117 2060 5
2190 2043 2129 2041 5
2049 2056 2135 2068 5
1935 2095 2131 2085 6
2202 2107 2069 2103 6
2173 2096 1973 2072 7
1925 2083 2019 2042 7
2083 2065 2122 2063 7
2139 2048 2074 2051 8
1871 2047 2022 2062 8
2090 2076 2035 2054 9
2230 2086 2097 2086 9
2047 2071 1973 2032 10
1961 2055 1976 2050 10
2207 2077 2025 2083 11
2065 2095 2113 2080 11
1927 2069 2110 2079 12
2171 2074 1948 2024 12
2140 2077 2028 2070 13
1891 2075 2003 2054 13
2096 2064 1928 2026 14
2226 2082 1766 2018 15
1938 2055 1831 2043 15
2023 2064 2089 2114 16
2171 2030 2324 2103 16
1970 2018 2500 2077 17
1873 2013 2546 2104 18
2079 1990 2295 2031 18
2000 2001 2044 2009 19
1856 2018 1882 1993 20
2103 2036 1829 1997 21
2179 2067 1849 2023 22
1971 2065 1552 1946 23
2045 2031 1547 1905 24
2212 2082 1875 2059 25
1911 2020 2232 2107 26
1913 1996 2165 2062 26
2173 2036 2004 1983 27
2043 2067 2017 2021 28
1939 2077 2263 2098 29
2197 2075 2394 2175 30
2127 2060 2289 2139 31
1942 2086 2029 2105 32
2193 2158 1973 2083 33
2249 2144 2017 2087 34
2021 2132 2215 2144 35
2160 2172 2143 2192 36
2286 2125 1754 2002 37
2035 2082 1694 1994 38
1816 1899 1489 1762 39
2019 1905 1676 1941 41
1897 1921 1600 1895 42
1798 1942 1954 2033 43
2232 2102 2613 2187 44
2132 2086 2775 2230 45
1911 2123 2905 2213 46
2175 2159 2637 2205 47
2271 2151 2453 2112 48
1903 2075 2173 2063 49
2001 2016 1829 1961 51
2226 2059 1758 1998 52
1849 1978 1643 1897 53
1847 1967 1623 1885 55
2246 2042 1339 1841 56
2314 2323 1414 2126 57
2325 2510 2027 2417 59
2830 2689 2781 2749 60
3448 3286 3399 3351 61
3197 3443 3487 3407 62
3847 3903 4095 4058 63
3319 3174 4087 3369 64
1737 2041 2751 2144 66
1623 1799 2005 1883 67
3528 3152 2987 3104 68
2554 2880 2793 2862 69
2075 1965 1716 1872 71
1458 767 183 600 72
535 772 185 646 73
1119 1632 1018 1457 74
1649 1200 220 975 75
1622 1211 628 1149 77
405 913 1036 985 78
795 931 1337 973 79
1272 787 894 826 80
701 878 1375 1091 81
1252 1494 2016 1625 82
3191 2933 3873 3163 83
1439 1598 2711 1795 84
1256 1505 2096 1537 85
1234 1088 1345 1074 86
1149 1361 1021 1196 88
1684 1921 1172 1679 89
2156 1635 1331 1629 91
2044 1825 1506 1731 93
1616 1984 1558 1861 94
2092 1997 1761 1962 96
2562 2215 2070 2184 97
2277 2514 2263 2454 99
2314 2448 2310 2449 100
2701 2369 2296 2360 101
2349 2396 2455 2390 102
2014 2240 2184 2233 103
2397 2180 1956 2105 104
2332 2221 2000 2103 105
1883 2269 2397 2313 106
2292 2311 2611 2351 107
2541 2328 2609 2514 108
1999 2274 2408 2307 108
2195 2267 2335 2288 109
2463 2165 2090 2150 109
2037 2151 2036 2145 110
2037 2222 1951 2113 110
2398 2134 1979 2090 110
2213 2199 2518 2330 111
2005 2256 2504 2369 111
2344 2205 2132 2217 111
2249 2128 1875 2089 111
1918 2094 1872 2030 112
2033 2002 2149 2097 112
2203 2033 2340 2127 112
2019 2124 2279 2177 112
2045 2152 2310 2185 112
2304 2135 2191 2121 112
2030 2058 2031 2020 112
1994 2160 2020 2068 112
2175 2066 1905 2022 112
2104 2053 1972 2047 111
1889 2057 1955 2029 111
2306 2262 2088 2187 111
2376 2293 2171 2248 111
2024 2184 2243 2222 111
2040 2066 2106 2065 111
2168 2011 2025 2006 110
1722 1849 1776 1815 110
1893 1977 2014 2036 110
2182 2000 2037 2043 109
2023 2109 2127 2100 109
1963 2104 2092 2076 109
2239 2071 2014 2056 108
2112 2083 2015 2058 108
1835 2056 2039 2019 107
2237 2129 2231 2147 107
2196 2087 2135 2097 106
1927 2107 1950 2060 106
1962 1977 1869 1927 105
2232 2029 2025 2040 105
1850 2002 1950 1992 104
1895 2044 2065 2061 104
2364 2152 2310 2247 103
1992 2059 2055 2079 102
1831 2049 1989 2029 102
2284 2043 2011 2037 101
2164 2089 2233 2118 100
1914 2144 2251 2152 100
2254 2147 2130 2134 99
2273 2090 1983 2044 98
1827 2046 2002 2029 97
1963 1997 1917 1978 97
2195 1967 1846 1923 96
1869 2000 1927 1976 95
1886 2036 2051 2039 94
2265 2083 2046 2063 93
2084 2086 2110 2111 92
1892 2066 2201 2137 91
2215 2042 2173 2120 90
2186 2123 2107 2120 89
1808 2067 1987 2038 88
2085 2004 2029 2006 86
2181 2015 2085 2023 85
1868 2057 2071 2061 84
2079 2133 2031 2086 83
2256 2035 1832 1992 82
1969 2062 1957 2029 81
1908 2077 2116 2089 79
2205 2046 2153 2065 78
2171 2116 2125 2115 77
1863 2029 1966 2014 75
2175 2066 2009 2047 74
2172 2061 2061 2066 72
1755 1924 1839 1898 71
2000 1987 1976 1979 69
2285 2110 2254 2172 68
1963 2099 2268 2160 66
2020 2067 2094 2082 65
2159 2012 1863 1980 63
1961 2029 1909 1984 62
1850 1987 1963 1993 60
2238 2034 2018 2043 58
2217 2140 2104 2127 57
1877 2116 2054 2074 55
2194 2123 2077 2090 53
2183 2029 2020 2025 52
1974 2148 2128 2125 50
2047 2085 2049 2055 49
2240 2080 2087 2085 47
1938 2034 2011 2002 45
1936 2072 2095 2085 44
2258 2094 2133 2095 42
2047 2053 2146 2070 40
1887 2031 2084 2045 39
2194 2059 2060 2062 37
2155 2115 2078 2096 36
1863 2049 2005 2038 34
2109 2055 1984 2027 33
2123 2018 1943 1985 31
1933 2111 2071 2092 30
1979 2010 1980 2016 29
2205 2016 1985 2034 28
2039 2116 2079 2116 26
1960 2111 2089 2115 25
2281 2117 2092 2136 24
2077 2052 2020 2057 23
1857 2034 2005 2043 22
2105 2025 1899 1991 22
2135 2033 1843 2011 21
1885 2052 1839 2045 20
2063 2056 2073 2081 19
2197 2042 2206 2056 19
1879 1987 2171 1995 18
1972 2023 2070 2023 17
2232 2086 1980 2085 17
1963 2076 1968 2088 16
1977 2072 1979 2056 16
2221 2070 2113 2032 16
2056 2057 2080 2016 15
1925 2066 2130 2082 15
2155 2059 2068 2083 15
2174 2051 2103 2128 15
1941 2102 2042 2087 15
2044 2058 2013 2023 15
2178 2032 2127 2025 15
1914 2040 2216 2045 15
1922 2047 1951 1969 15
2216 2044 1856 2012 15
2020 2024 1983 2086 16
1901 2019 2079 2070 16
2195 2103 2033 2072 16
2115 2068 1916 2046 17
1886 2059 1961 2029 17
2106 2035 1992 2093 18
2184 2066 2208 2091 18
1902 2053 2237 2093 19
2013 2013 2169 2034 20
2264 2105 2149 2069 21
1977 2107 2092 2069 21
2035 2151 2199 2126 22
2309 2132 2216 2139 23
2062 2063 2085 2071 24
1872 2036 2029 2045 25
2189 2039 1965 2036 26
2150 2047 1817 2012 28
1874 2083 1794 1980 29
2108 2050 1899 2017 30
2179 2058 2065 2051 31
1879 2041 1948 2039 32
2005 2021 1967 2053 33
2246 2085 2175 2112 35
1987 2077 2232 2079 36
1901 2036 2174 2043 37
2197 2019 2074 1996 38
2019 2023 2041 2031 40
1835 2028 1986 2041 41
2174 2060 1899 2018 42
2114 2031 1965 2037 43
1814 2023 2064 2029 45
2002 2028 2048 2002 46
2294 2082 2022 2085 47
1978 2123 1835 2063 49
2116 2184 2119 2146 50
2379 2177 1911 2126 51
2034 2125 1717 2019 52
1958 2127 1907 2073 54
2187 2003 2372 2191 55
1985 2009 2304 2040 56
1824 1982 2093 1968 58
1992 1938 2072 1923 59
2121 1992 2525 2096 60
1835 2026 2667 2240 62
2045 2061 1977 2060 63
2246 2077 1336 1915 64
1929 2045 1329 1914 66
1953 2043 1775 1966 67
2198 2044 2098 2068 69
2070 2095 2187 2052 70
1957 2112 1962 2051 71
2239 2081 1704 2002 73
2071 2026 2051 2015 74
1879 2033 2143 2093 75
2122 2067 2037 2053 76
2162 2020 2158 2143 78
1919 2047 2563 2109 79
2002 2024 2562 2099 80
2177 2055 2137 2058 82
1979 2079 1516 1995 83
1957 2018 1371 1839 85
2220 2083 1636 1936 86
2042 2074 2495 2276 88
1919 2071 2398 2146 89
2184 2118 2861 2412 90
2195 2101 2454 2065 92
1904 2088 1657 1806 93
2114 2037 1837 1945 95
2195 2039 2128 2129 96
1929 2077 1787 2014 98
2056 2127 1833 2044 99
2255 2073 1639 2032 101
1947 1977 1614 1994 102
1894 2020 2153 2126 103
2210 2066 2342 2052 105
2048 2043 1938 1897 106
1894 2047 2226 2119 107
2205 2117 2440 2250 108
2142 2089 1869 2095 110
1943 2129 2192 2199 111
2089 2057 2116 1978 112
2235 2077 2268 2079 113
1847 2059 2221 2019 114
2048 2103 1811 2012 115
2274 2049 1623 1920 116
1990 2079 1857 1969 117
1863 2027 2018 2041 118
2271 2084 2166 2152 118
2083 2083 2155 2154 119
1866 2049 2047 2067 120
2178 2032 1924 1987 121
2127 1999 1930 1978 121
1761 1971 1960 1975 122
2046 2030 1841 1947 122
2199 1986 2027 2026 122
1794 1993 1904 1939 123
1892 1997 1987 1997 123
2289 2080 2281 2121 123
1943 2058 2237 2120 123
1887 2100 2225 2118 123
2217 2019 1935 1996 123
1995 1989 1815 1944 123
1791 2055 2086 2090 123
2133 2014 2015 2010 123
2182 2041 2042 2047 123
1799 2038 2008 2025 123
2122 2101 2079 2100 123
2326 2130 2046 2083 122
1996 2156 2148 2168 122
2043 2138 2140 2150 121
2356 2166 2248 2188 121
2103 2139 2084 2104 120
1953 2127 2139 2129 120
2374 2213 2290 2258 119
2310 2229 2259 2235 118
1945 2200 2199 2194 117
2271 2174 2089 2114 116
2324 2167 2170 2173 115
1950 2179 2192 2187 114
2081 2121 2066 2097 113
2265 2053 2032 2056 112
1843 2009 1989 1997 111
1795 1944 1779 1890 109
2136 1940 1818 1916 108
1856 1909 1969 1955 107
1666 1890 1993 1945 105
2019 1894 1974 1919 104
2025 1931 1889 1894 103
1701 1971 1928 1923 101
2053 1983 2028 1981 99
2209 1993 2128 2078 98
1884 2043 2089 2063 96
2080 2074 2094 2096 95
2297 2038 1882 1967 93
1881 1994 1851 1967 91
1854 2021 2024 2020 90
2221 1998 1986 2012 88
1988 1967 1975 1977 86
1755 1941 1974 1987 84
2114 1959 1924 1973 82
2099 1988 1742 1927 80
1809 2024 1871 1980 78
2064 2030 2138 2003 76
2221 2044 2463 2172 75
1888 2048 2325 2138 73
2006 2065 1958 2029 71
2274 2052 1816 2011 69
1983 2069 2011 2029 67
1847 2025 2043 2028 65
2214 2040 2049 2026 64
2108 2061 2060 2047 62
1822 2075 2039 2064 60
2219 2071 1895 2044 58
2184 2068 1822 2003 57
1953 2121 2004 2095 55
2083 2099 2211 2091 53
2269 2102 2379 2130 51
2017 2147 2267 2144 49
2145 2241 2002 2179 47
2337 2175 1904 2133 46
2111 2132 2179 2149 44
1943 2083 2267 2116 42
2224 2091 2277 2105 40
2175 2144 2095 2122 38
1982 2151 1983 2108 37
2140 2114 1996 2120 35
2259 2121 2033 2106 33
1991 2152 2205 2159 32
2154 2148 2122 2132 31
2306 2132 2044 2140 30
2070 2145 1941 2129 28
2027 2121 2048 2126 27
2316 2167 2094 2180 26
2184 2180 2200 2198 26
1907 2077 2129 2080 25
2093 2012 2115 2033 24
2042 1950 2024 1941 24
1789 1935 1724 1901 23
2000 1974 1845 1972 23
2154 2004 1999 1992 23
1837 1995 1960 1992 22
1960 2040 1945 2006 22
2187 2049 2169 2094 22
1981 2059 2114 2054 22
1918 2018 1951 1984 22
2168 2033 2064 2057 22
2028 2011 2296 2021 22
1847 2043 2403 2090 23
2118 2051 1969 1962 23
2109 2031 1541 1946 23
1839 2011 1833 2012 24
2067 2020 2079 2059 25
2206 2077 2073 2064 25
1900 2060 1958 2037 26
1943 2028 2128 2040 27
2215 2027 2139 2039 28
1973 2021 1997 2064 29
1902 2028 1970 1964 29
2186 2055 1955 2012 30
2006 2024 2290 2059 31
1907 2012 2214 2113 33
2217 2107 2024 2022 34
2211 2083 1784 2049 35
1904 2083 1906 1999 36
2030 2051 2190 2134 37
2243 2085 2278 2028 38
1961 2093 2123 2083 40
2012 2119 1873 2075 41
2318 2146 1594 2094 43
2067 2113 1775 2123 44
1905 2083 2500 2135 46
2213 2047 2921 2163 47
2067 2051 2643 2045 49
1809 2020 1701 1886 50
2086 1994 1327 1903 52
2214 2029 1715 2048 54
1869 2069 1886 2125 55
2024 2052 1792 2040 57
2205 1980 1974 2042 58
1843 1970 2140 1962 60
1824 1934 2322 2016 62
2167 2032 2005 1889 63
2023 2001 1413 1859 65
1854 1979 1874 2064 66
2171 2029 2219 2108 68
2091 2007 1631 2025 69
1854 2082 1569 1952 71
2117 2082 2265 2075 73
2205 2071 3593 2494 74
1893 2071 2802 2107 76
2031 2055 1545 1901 78
2252 2080 1611 1903 79
2003 2097 2389 2133 81
1903 2047 2035 2076 83
2247 2074 1597 1987 84
2120 2136 1677 1953 86
1903 2023 1828 1936 88
2164 1971 1721 1996 89
2164 2039 1887 2074 91
1892 2099 2162 2126 93
2164 2094 2688 2243 94
2323 2155 2621 2123 96
1891 2016 2177 2023 97
1998 2080 1576 1883 99
2287 2102 1849 2006 101
1959 2078 2398 2176 102
1853 1988 2407 2084 104
2287 2124 2181 2071 105
2040 1918 1451 1803 106
1919 2133 1839 2063 108
2160 2059 2093 2093 109
2116 2089 1727 1870 110
1897 2105 1599 1881 112
2109 2064 2073 2185 113
2230 2061 2323 2177 114
1899 2061 2252 2125 115
1937 2068 2092 2019 116
2115 1900 1911 1932 116
1944 1970 1880 1951 117
1773 1869 1903 1912 118
2282 2128 2079 2045 119
2085 2087 2018 2022 119
1944 2096 2107 2058 120
2149 2058 2050 2036 120
2278 2152 2155 2208 121
1829 2030 1950 2011 121
2027 1995 2012 2029 121
2267 2030 1999 2091 122
2024 2213 2048 2238 122
2018 2229 2122 2272 122
2270 2086 2188 2125 121
2010 2022 2281 2060 121
1846 2066 2214 2075 121
2187 2029 2067 2064 121
2180 2061 2028 2030 120
1873 2035 2047 2031 120
2127 2041 1999 2031 119
2275 2046 1956 2025 118
1835 2033 2033 2037 117
1791 1983 1925 1955 116
1994 2005 1938 2007 115
1754 2058 2054 2085 113
1839 2050 1777 1960 112
2261 2059 2054 2098 111
2060 2045 2203 2099 109
1886 2052 2166 2085 107
2196 2067 2166 2102 106
2183 2039 2057 2035 104
1936 2071 2102 2035 102
2147 2054 2291 2150 100
2354 2093 1968 2069 98
2029 2090 1849 2025 96
2031 2078 1921 2031 94
2251 2047 1997 2017 92
2039 2045 1928 2028 90
1915 2025 2035 2020 88
2237 2091 2260 2141 86
2095 2043 2061 2056 84
1852 2043 2041 2032 81
2081 2027 1852 1989 79
2192 2078 2143 2034 77
1898 2042 2357 2164 75
2057 2042 2231 2089 73
2262 2045 2056 2076 71
1920 2035 1936 2009 69
1905 2019 1929 1999 67
2233 2056 1946 2029 65
1939 2020 1775 1948 63
1846 1992 1793 1945 61
2226 2067 1970 2040 60
2063 2027 2016 1998 58
1840 2043 2152 2035 56
2134 2045 1991 2027 54
2171 2055 2066 2042 52
1907 2103 2233 2121 50
2126 2155 2288 2147 48
2357 2163 2253 2151 46
2013 2129 2085 2100 44
1997 2106 2019 2086 42
2277 2089 2048 2075 41
2031 2063 2011 2038 39
1889 2056 1976 1992 37
2159 2008 1959 1950 36
2101 2020 1995 2019 34
1926 2120 2107 2184 32
2076 2049 2003 2086 31
2216 2094 2032 2119 29
1915 2063 1946 2041 28
2007 2072 1918 2049 26
2182 2027 1894 2022 25
2006 2085 2098 2074 23
1948 2056 2275 2097 22
2211 2080 2232 2072 21
2008 2023 2086 2011 20
1875 2053 1954 2018 18
2146 2050 1912 2033 17
2150 2063 1903 2035 17
1899 2068 1938 2072 16
2101 2088 2080 2098 15
2222 2082 2139 2090 14
1913 2049 1938 2031 14
2008 2081 1811 2067 13
2266 2104 2048 2123 13
2032 2094 2369 2154 13
1920 2043 2447 2041 13
2243 2091 2270 2041 12
2069 2047 1891 1965 12
1881 2056 1703 1989 12
2134 2036 1754 1989 13
2116 2028 2004 2008 13
1882 2063 2109 2093 13
2046 2056 2035 2117 13
2232 2065 1971 2088 13
1937 2067 2194 2082 14
1983 2060 2322 2042 14
2227 2071 2308 2049 15
2034 2092 2102 2068 15
1902 2057 1894 2012 16
2195 2079 1795 2046 17
2155 2066 1935 2098 18
1931 2101 2135 2143 19
2161 2091 2187 2088 20
2187 2091 1865 2034 21
1895 2051 1957 2023 22
2017 2012 2281 2067 23
2185 2056 2205 2094 24
1988 2096 2149 2064 26
1968 2116 1945 2095 27
2263 2086 2359 2108 28
2072 2057 2279 2128 30
1894 2080 1825 2020 31
2177 2093 1894 2071 33
2153 2081 2057 2081 35
1903 2059 2078 2042 36
2048 2040 2035 2020 38
2186 2021 1918 2031 40
1865 2005 1556 1978 42
1951 2001 2031 2015 43
2177 1973 2078 1995 45
1900 2034 2277 1952 47
1908 2025 2177 2086 49
2244 2075 2139 2089 51
2092 2094 2326 2238 53
1935 2132 2240 2136 55
2198 2068 1593 2011 57
2187 2090 1622 1951 59
1873 2026 2206 2098 61
2035 2058 2992 2256 63
2249 2110 2705 2177 65
1958 2112 1998 2031 67
2127 2199 1438 2008 69
2283 2172 1502 1961 71
1908 2029 1831 2094 73
1713 1919 2168 1916 75
2081 1919 1664 1861 77
2028 1937 1409 1670 79
1860 2003 2069 2035 80
2084 2032 2995 2362 82
2061 1978 2257 2031 84
1914 2095 1851 1998 86
2085 2062 1959 1981 87
2274 2151 2533 2252 89
1990 2091 2489 2254 91
2011 2100 1829 2044 93
2223 2038 1469 1805 94
2001 2018 1949 2024 96
1883 1979 1967 1941 97
2190 2051 2101 2081 99
2173 2215 2504 2287 100
1899 2066 2019 2050 102
2159 2010 1775 1957 103
2170 2082 1861 1992 104
1823 2031 1879 1943 105
2064 2071 1899 1994 107
2313 2130 2014 2072 108
1985 1986 2043 2047 109
1894 2048 1946 1935 110
2227 2035 1958 1945 111
2001 2028 2050 1994 111
1935 2106 2172 2143 112
2271 2151 2131 2247 113
2133 2127 2101 2167 113
1990 2273 2225 2285 114
2093 2022 2028 2057 114
2231 2141 2151 2179 115
1915 2081 2036 2106 115
1989 2037 2004 2019 115
2193 2033 2075 2037 115
1958 2043 2011 2020 115
1944 2038 2015 2023 115
2216 2047 2101 2049 115
2030 2061 2147 2037 115
1852 2024 2164 2053 114
2176 2047 2074 2039 114
2037 2033 1999 2024 113
1779 2043 2037 2046 112
2109 2069 2046 2064 111
2181 2052 1965 2030 111
1877 2039 1906 1984 110
1957 2043 2107 2090 108
2160 2051 2126 2124 107
1937 2062 1912 2039 106
1865 2053 1923 2044 105
2278 2076 2087 2073 103
2047 2046 2285 2106 102
1953 2094 2357 2159 100
2199 2005 1911 1958 99
2177 2053 2005 2031 97
1877 2065 2131 2083 96
2140 2072 2142 2067 94
2281 2076 2047 2062 92
1933 2035 1934 2010 90
1981 2057 1874 1988 88
2308 2081 1925 2061 87
2068 2095 1971 2048 85
1915 2062 2052 2066 83
2233 2058 1957 2054 81
2107 2071 1907 1977 79
1817 2039 2276 2141 77
2216 2064 2517 2159 75
2142 2002 2372 2141 73
1815 2045 2044 2037 71
2021 2008 1894 1991 69
2240 2098 2007 2037 67
1892 2041 1950 2026 66
1984 2098 1969 2057 64
2233 2062 1981 2025 63
2024 2080 2053 2053 61
1933 2086 1939 2043 60
2228 2102 1883 2052 58
2161 2072 1930 2065 57
1871 2064 2105 2050 55
2037 2009 2067 1988 53
2232 2065 2079 2031 51
1895 2074 2023 2045 50
2037 2054 2191 2103 48
2265 2085 2235 2098 46
1919 2005 2130 2025 45
1927 2046 1992 2006 43
2207 2027 1947 2011 42
2030 2063 1999 2053 40
1827 2031 1947 2019 39
2163 2045 1957 2033 37
2143 2059 2009 2054 36
1930 2122 2047 2064 34
2101 2062 2019 2045 33
2209 2059 1997 2054 32
1910 2049 1822 2076 30
2005 2082 1905 2094 29
2246 2108 2030 2106 28
1981 2037 2253 2066 27
1912 2009 2345 2067 26
2164 2045 2110 2040 25
2090 2063 1825 2010 24
1903 2052 1667 1999 23
2113 2048 1818 2071 22
2134 2061 2247 2087 21
1919 2052 2389 2077 20
2071 2045 2379 2053 20
2230 2072 2115 2073 19
1947 2088 1936 2077 19
1950 2094 1897 2089 19
2309 2084 2056 2108 18
2043 2061 2097 2103 18
1945 2053 1925 2035 18
2195 2061 1761 1992 18
2043 2036 1742 1998 18
1928 2035 2021 2043 18
2105 2034 2189 2068 18
2187 2044 2163 2082 19
1872 2017 2003 2081 19
1970 2063 1967 2021 19
2172 2070 2098 2031 20
1960 2023 2286 2059 20
1947 2029 2132 2063 21
2229 2105 2099 2100 22
2058 2037 2241 2145 23
1920 2019 2077 2067 24
2155 2074 2209 2099 25
2149 2093 2034 2099 26
1889 2098 2266 2112 28
2131 2115 2118 2083 29
2268 2092 1960 2026 31
1921 2072 1839 2005 32
2095 2102 1967 2061 34
2283 2091 1829 2052 35
1990 2119 1802 2094 37
1986 2080 1974 2076 39
2259 2054 2517 2219 41
2051 2066 2075 2041 42
1880 2023 2111 2009 44
2166 2064 2261 2127 46
2099 2031 2299 2051 48
1809 2081 2059 2165 50
2087 2070 1712 1936 52
2210 2076 1962 2024 54
1895 2047 2279 2007 56
2015 2047 2438 2104 58
2247 2070 2159 2027 60
2000 2096 1869 2041 62
1971 2078 1802 2036 64
2256 2051 1405 2009 66
2008 2013 2005 2026 68
1773 1926 2136 2002 70
2095 1989 2114 2047 72
2081 2015 1911 1961 74
1798 2049 1952 1992 75
2043 2076 2279 2144 77
2175 2018 2117 2020 79
1941 2067 1916 2047 81
2064 2093 2098 2162 83
2242 2040 2160 2114 84
2015 2084 2134 2139 86
1927 2094 2098 2012 88
2249 2037 2035 2039 89
2040 2009 2039 1979 91
1801 1986 1679 1841 92
2129 2029 1715 1921 94
2153 2038 2152 2139 95
1865 2056 2103 2079 96
2036 2050 2062 2064 98
2212 2038 1863 1963 99
1904 1950 1866 1962 100
1965 2019 1973 2014 101
2216 2117 1952 1981 102
1979 2021 1918 1955 103
1866 2035 1988 2011 104
2176 1921 1992 1993 105
2202 2226 2157 2150 106
1936 2138 2114 2093 106
2143 2077 2116 2087 107
2302 2183 2177 2200 108
1953 2125 2126 2165 108
1996 2025 1997 2015 109
2179 2007 1989 1975 109
1941 2055 2080 2080 110
1985 2148 2191 2185 110
2275 2108 2125 2160 110
2085 2083 2060 2082 110
1902 2092 2104 2099 110
2179 2056 2070 2061 110
2112 2013 2015 2013 110
1872 2057 1981 2018 110
2049 2035 2052 2048 110
2182 2044 2035 2031 109
1887 2059 2026 2037 109
1999 2049 2111 2085 108
2266 2081 2127 2115 108
1977 2064 2125 2081 107
1911 2003 1939 1964 106
2159 2045 1999 2013 105
2006 2063 2108 2077 104
1820 2049 2119 2077 103
2140 2071 2001 2013 102
2114 2046 1989 2025 101
1892 2055 2104 2110 99
2066 2042 2097 2076 98
2217 2032 2044 2042 97
1922 2021 1987 2029 95
1984 2043 1838 1969 94
2252 2080 1941 2047 92
2026 2086 2148 2130 90
1940 2034 2294 2145 88
2250 2085 2115 2059 86
2130 2089 2017 2032 84
1941 2099 2139 2101 82
2191 2072 2275 2168 80
2210 2031 2136 2098 78
1856 2019 1948 2006 76
2036 2007 1955 1988 74
2257 2041 2015 2048 72
1956 2032 1837 1983 70
1960 2036 1737 1972 68
2163 2017 1965 1999 66
2008 2024 2137 2062 64
1880 2059 2189 2042 62
2201 2055 2007 1989 60
2123 2047 1957 1991 58
1853 2095 2126 2097 56
2156 2134 2277 2184 54
2251 2133 2192 2159 52
1943 2112 2141 2111 50
1989 1989 1996 2008 48
2205 2077 1993 2022 46
1931 2047 1983 2024 44
1923 2074 1970 2027 42
2193 2033 1954 1964 41
2033 1989 1961 1935 39
1907 2062 2127 2175 37
2196 2058 2011 2079 36
2137 2078 2043 2102 34
1937 2051 2039 2045 33
2157 2093 2091 2086 31
2225 2110 2085 2128 30
1907 2046 1979 2029 29
2006 2039 2011 2026 27
2222 2056 2066 2078 26
1981 2059 2038 2058 25
1937 2042 2021 2027 24
2203 2023 2013 2043 22
2023 2035 1927 2010 21
1844 2011 1854 1975 20
2101 2011 1828 1983 20
2101 2014 2085 2059 19
1871 2037 2298 2094 18
2061 2032 2255 2030 17
2208 2057 2035 2015 17
1941 2056 1835 2012 16
1959 2058 1608 2023 16
2268 2062 1838 2080 15
1975 2040 2003 2036 15
1930 2038 2327 2069 15
2201 2053 2251 2039 15
2073 2072 2015 2063 15
1879 2025 1995 2040 15
2141 2040 2253 2094 15
2144 2064 2346 2114 15
1901 2089 2078 2060 15
2093 2124 1974 2069 15
2306 2090 1822 2081 15
1963 2100 1988 2101 16
2050 2128 2115 2157 16
2296 2123 2273 2191 17
2041 2073 2175 2100 17
1988 2099 2003 2056 18
2170 2082 1983 2048 19
2083 2039 1792 2074 20
1848 2021 2085 2075 21
2086 2048 1950 1989 23
2228 2126 2329 2097 24
1890 2128 2570 2088 25
2076 2100 2557 2155 27
2213 2045 2035 2045 28
1923 2061 1687 1968 30
1948 2049 1831 2031 32
2238 2060 2145 2084 34
2101 2061 2343 2114 35
1859 2019 1845 1947 37
2210 2100 1769 2019 39
2135 2088 1475 1981 41
1829 2025 1830 2026 43
2056 2043 1873 1982 45
2157 1974 2014 2055 47
1893 2011 2033 2075 49
1939 2041 2085 1962 51
2374 2142 2639 2263 53
1982 2094 2598 2232 56
1915 2059 2259 2176 58
2179 2024 1668 1860 60
1921 1984 1522 1829 62
1763 1991 1441 1919 64
2098 1994 1983 2048 66
2137 2043 2323 2074 68
1817 2022 2439 2075 70
2050 2058 2521 2085 73
2247 2013 2207 2083 75
2014 2076 1946 1955 77
2028 2117 2032 2131 79
2310 2160 2392 2249 81
2000 2077 2143 2101 83
1920 2102 1115 1881 86
2203 1996 1306 1783 88
2035 2012 2417 2186 90
1950 2104 3096 2380 92
2211 2157 2604 2182 94
2210 2014 1543 1908 96
1935 2041 1598 1931 97
2148 2073 1968 2031 99
2184 2033 1834 1966 101
1965 2176 1875 2019 103
1985 1923 1903 1986 104
2207 2030 1989 2049 106
2020 2091 1933 2026 107
1903 2052 1949 2011 108
2133 1990 1945 1962 110
2176 2066 2075 2059 111
1858 1952 2019 2015 112
2114 2135 2079 2024 113
2138 1936 1987 1947 114
1807 1984 1991 1901 115
1972 2060 2051 1930 116
2270 2083 2085 2049 117
2077 2248 2228 2332 118
1980 2139 2122 2324 119
2337 2224 2225 2443 119
2147 2176 2161 2267 119
1945 2089 2066 2110 119
2185 2069 1988 2078 119
2084 2016 1800 1945 119
1884 1972 1944 1955 119
2135 2085 2271 2066 119
2148 2035 2376 2093 119
1867 2069 2223 2065 118
1854 2009 1970 1983 118
2059 2001 1929 1986 117
1947 2020 2015 2000 116
1847 2039 1962 2003 115
2188 2060 2016 2047 114
2070 2072 2137 2129 112
1853 2026 2052 2049 111
2135 2056 2078 2091 110
2158 2082 2017 2054 108
1891 2037 1932 1997 107
2011 2014 1827 1958 105
2172 1986 1803 1922 103
1881 1995 2049 2025 101
1993 2049 2319 2170 99
2242 2067 2150 2088 97
2002 2034 2040 2011 95
1887 2034 2113 2050 93
2202 2077 2191 2105 91
2182 2101 2227 2162 89
1916 2031 1891 2012 87
2251 2072 1785 1989 84
2223 2065 1916 2021 82
1840 2046 2109 2017 80
2097 2048 2252 2072 78
2280 2064 2036 2063 75
1927 2067 1976 2050 73
1971 2031 2067 2038 71
2234 2000 2112 2031 69
1912 2003 1937 2028 66
1984 2056 1886 2045 64
2213 2069 2154 2112 62
2123 2072 2211 2050 60
1874 2050 2052 2031 58
2066 2026 1920 2001 56
2171 2096 2055 2055 54
1900 2053 2144 2056 52
2122 2141 2144 2116 50
2284 2091 1987 2050 48
2027 2172 2047 2117 46
2022 2131 2102 2101 44
2286 2128 2104 2089 42
2000 2027 1988 2034 41
1810 1994 1940 1987 39
2132 2013 1952 2012 37
2117 2028 1948 2018 35
1884 2082 1971 2076 33
2105 2069 1986 2081 32
2164 2033 1955 2026 30
1846 2022 2087 2052 28
1984 2070 2096 2054 27
2305 2105 2168 2136 25
2000 2072 2192 2069 24
1938 2049 2183 2077 23
2159 1993 2017 1968 21
1963 1988 1897 1961 20
1844 2026 1845 1991 19
2096 1995 2004 2016 18
2102 1983 2072 2025 17
1837 2014 1872 1987 17
2079 2039 1718 1999 16
2215 2052 1953 2090 16
1907 2041 2214 2090 15
2114 2173 2256 2173 15
2205 2067 1731 2005 14
2002 2071 1595 1989 14
2056 2163 1909 2136 14
2119 2014 2175 2077 14
2145 2082 2424 2107 14
1911 2051 2256 2062 14
2084 2037 2301 2036 14
2171 2097 2296 2116 14
1939 2085 2297 2091 15
2047 2041 2233 2093 15
2211 2075 1915 2097 15
2005 2079 1768 2055 16
2000 2075 1581 2011 17
2213 2056 1849 2022 18
2042 2073 2149 2103 19
1954 2074 2306 2127 20
2222 2111 2293 2106 21
2164 2036 2140 2084 22
1878 1999 2211 2043 24
2093 2118 2329 2192 25
2215 2145 2445 2136 27
1955 2147 2498 2184 29
2066 2074 2349 2030 31
2270 2131 1756 2036 33
1994 2165 1786 2033 35
2021 2108 1758 2075 37
2273 2065 1665 2011 39
1983 1995 1332 1893 41
1820 1953 1951 1952 44
2088 1916 2409 2052 46
2099 2054 2527 2159 48
1890 2087 1927 1943 50
2075 2112 1618 1862 53
2136 1990 1876 2013 55
1883 1997 2445 2098 57
1891 1941 2405 2219 59
2166 2050 2036 1996 62
1927 2038 1995 2057 64
1862 2065 2168 1973 66
2235 2095 2361 2175 69
2129 2128 2213 2169 71
1935 2092 1789 1962 73
2164 2059 1972 1963 75
2126 2001 2246 2055 78
1919 2048 2058 2060 80
2074 1991 1307 1799 82
2253 2035 1580 1985 84
1897 1975 2210 2183 86
1984 2110 2314 2210 88
2258 2151 2620 2258 90
2016 2082 2482 2114 92
1902 1951 1981 1927 94
2378 2255 1956 2053 96
2190 2096 1539 1945 98
1922 2207 1884 2051 100
2079 1923 1926 1955 102
2225 2143 1952 2006 103
1865 2032 2174 2095 105
2064 2010 2446 2259 106
2160 1934 2144 2045 108
1883 2028 1681 1858 109
1941 2130 1824 1955 111
2239 2080 1997 2039 112
2035 2001 1896 1979 114
1831 1894 1871 1898 115
2118 2050 1929 1905 116
2117 1983 2067 2058 117
1789 1947 1929 1943 118
2158 2127 2081 2079 119
2105 2012 1991 1937 120
2006 2167 2177 2160 121
1836 1875 1912 1900 121
2387 2224 2200 2309 122
2063 2237 2222 2327 122
2012 2224 2158 2252 122
2274 2067 2025 2131 122
2091 2108 2095 2125 122
1836 2045 1956 2028 122
2231 2055 2043 2050 122
2147 2051 2145 2076 122
1816 2018 2095 1983 121
2174 2080 2181 2089 121
2199 2012 2008 1980 120
1769 1989 2031 2014 120
1978 2040 2112 2081 119
2122 1994 1974 1992 118
1852 1925 1885 1921 117
1871 2006 2005 2020 115
2073 2049 2047 2057 114
2105 2163 2121 2154 113
1846 2024 1975 2032 111
2207 2063 2010 2065 110
2151 2058 1922 2032 108
1861 2047 2015 2073 106
2034 2052 2143 2078 105
2258 2078 2085 2054 103
1863 2000 2108 2022 101
1999 2034 2069 2016 99
2274 2116 2165 2075 96
2028 2031 2249 2143 94
1956 2076 2073 2080 92
2240 2034 2010 2055 90
2128 2042 1937 2006 87
1907 2029 1881 1983 85
2176 2049 1923 2003 83
2244 2081 1997 2060 80
1915 2074 1848 2048 78
2033 2024 1961 1989 75
2298 2055 2002 1988 73
1859 2011 2272 2072 70
2066 2096 2360 2161 68
2285 2090 2249 2181 65
2001 2120 2198 2168 63
1879 2004 1998 2007 61
2142 1968 1925 1982 59
2193 2129 2057 2092 57
1842 2048 1979 2015 55
2076 2007 1878 1921 53
2091 1945 1855 1902 51
1887 2074 2008 2062 49
2056 2089 1976 2087 47
2273 2097 1903 2055 45
1993 2093 1914 2019 43
1976 2056 2154 2109 41
2249 2144 2131 2081 39
2040 2076 2095 2040 38
1897 2103 2053 2043 36
2192 2073 2173 2113 34
2177 2136 2277 2141 32
1902 2117 2260 2162 31
2136 2086 2144 2075 29
2188 2072 1993 2050 28
1930 2107 1919 2039 27
2111 2080 1945 2079 25
2221 2027 2026 2039 24
1944 2004 2053 2030 23
1845 1981 1929 1988 23
2077 1949 1910 1950 22
1975 1968 1989 1985 21
1853 2025 1995 2013 20
2175 2078 1951 2062 20
2148 2047 1807 2040 19
1900 2058 1775 2045 19
2018 2036 1883 2019 19
2201 2056 2002 2070 18
1929 2056 2111 2073 18
1984 2061 2106 2063 18
2286 2075 2306 2086 18
2031 2098 2464 2069 18
1903 2057 2359 2083 18
2253 2123 2175 2070 18
2011 2034 2019 2054 18
1942 2070 2184 2082 18
2157 2068 1883 2036 19
2193 2070 1653 1971 19
1904 2097 1600 2091 19
2019 2030 1981 2032 20
2212 2059 2283 2157 21
1971 2074 2106 2095 21
2002 2089 1793 2040 22
2165 2075 1707 2014 23
1954 2051 2429 2193 24
1965 2045 2532 2065 25
2166 2013 2224 2113 27
2133 2063 2065 2158 28
1884 1983 2312 2019 29
2059 2059 2329 2097 31
2276 2191 2059 1979 33
1949 2103 1691 2012 35
2078 2104 1767 2061 37
2219 2024 2447 2129 39
1979 2083 2151 2130 41
2072 2143 1771 2071 43
2283 2132 1929 2161 45
2093 2148 2863 2289 48
1814 2048 2853 2104 50
2146 2056 1940 1933 52
2070 1956 1011 1705 55
1836 1955 1112 1839 57
2051 1957 1889 1960 59
2128 1998 2313 2016 62
1910 2108 2369 2059 64
2056 2080 2040 2066 66
2257 2093 2045 2116 69
1982 1992 1748 1973 71
1928 2039 1879 2035 73
2238 2074 2529 2229 75
2022 2011 2274 2153 77
1850 2019 2157 2060 80
2183 2076 1749 2024 82
2121 2117 2262 2088 84
1808 2104 2186 2052 86
2067 2021 1981 1946 88
2146 1996 1589 1798 90
1827 2006 1857 2035 92
1961 1911 2155 2117 94
2283 1973 1881 1994 95
1972 2047 1493 1875 97
2013 2151 2016 2122 99
2231 2084 2253 2145 101
2103 2123 2245 2119 102
1847 1993 1932 1939 104
2101 1923 1837 1930 105
2185 2087 2032 2087 107
1886 2019 2081 2089 108
2047 2077 1931 2002 109
2288 2111 1974 2017 111
1924 2056 2011 2034 112
1943 2037 2010 2018 113
2287 2104 2013 2026 114
2047 2027 2073 1995 115
1756 1908 1878 1753 116
2281 2069 2127 2140 117
2067 1992 2018 2033 118
1910 2116 2154 2176 119
2176 2157 2154 2219 119
2259 2165 2162 2247 120
1867 2111 2099 2238 120
2023 2136 2078 2137 120
2228 2113 2108 2095 121
1961 2106 2089 2099 121
1943 2032 2059 2048 121
2299 2069 2080 2048 120
2018 2035 2047 2019 120
1842 1970 1943 1934 120
2232 2042 2031 2015 119
2073 2054 2066 2046 119
1895 2111 2150 2125 118
2012 1951 1967 1962 117
2159 2094 2129 2096 116
1904 2077 2103 2067 115
2054 2114 2136 2120 114
2247 2045 2021 2048 113
1893 2019 1980 2027 111
1842 2038 2018 2050 110
2079 2008 1972 1996 108
2051 2032 1942 1987 106
1814 2027 1945 2000 105
2142 2057 2082 2078 103
2103 2018 1826 1967 101
1818 2027 1864 1977 99
2056 2059 2200 2121 97
2225 2069 2359 2161 94
1929 2078 2347 2159 92
1984 2023 1843 1914 90
2236 2048 1919 1985 87
2139 2127 2281 2208 85
1978 2099 2216 2139 82
2350 2132 2103 2116 80
2191 2093 1964 2034 78
1908 2046 1921 1994 75
2199 2038 1754 1973 73
2184 2030 1757 1985 70
1859 1985 1875 1967 68
2007 2036 2130 2010 66
2231 2058 2361 2103 63
1966 2035 2320 2101 61
2014 2083 2259 2119 59
2227 2025 1903 2008 56
2065 2093 1813 2018 54
1865 2038 1906 2019 52
2189 2088 2180 2074 50
2130 2081 2230 2053 48
1938 2130 2180 2136 46
2149 2122 2037 2110 44
2214 2116 2024 2085 42
1906 2071 1971 2021 40
2042 2084 1937 2045 38
2259 2073 1923 2064 36
2001 2102 2051 2081 34
1967 2064 2046 2045 33
2260 2097 2088 2088 31
2072 2083 1993 2080 29
1909 2071 1905 2055 27
2174 2075 2054 2093 26
2171 2095 2103 2094 24
1882 2069 2111 2080 22
2090 2049 2038 2022 21
2200 2067 1935 2021 20
1917 2069 1971 2062 19
1935 2043 2023 2045 17
2191 1979 2200 2057 16
1952 1977 2289 2007 16
1904 1999 2142 2006 15
2181 2011 1972 1982 14
2001 1999 1871 2001 14
1829 2024 1919 2034 14
2102 2025 1795 1997 13
2129 2031 1721 1978 13
1903 2054 1760 1999 13
2068 2072 2090 2085 13
2207 2087 2281 2125 13
1988 2112 2127 2065 13
1972 2096 1766 2074 14
2272 2114 1692 2023 14
2001 2064 1882 2092 14
1955 2098 2504 2125 15
2244 2050 2471 2113 15
2067 2114 2206 2119 16
1952 2067 2332 2151 17
2128 2075 2396 2134 18
2159 2087 2221 2110 19
1916 2055 2081 2052 20
2027 2052 1906 2043 21
2198 2118 1706 2014 23
1984 2040 1909 2109 24
1956 2033 1977 2069 26
2251 2049 2427 2143 27
2060 2095 2501 2109 29
1984 2141 1927 1962 31
2221 2113 2093 2086 33
2197 2125 2091 2087 35
1932 2101 2210 2068 37
2152 2106 1954 2068 39
2214 2036 1491 1998 41
1856 1996 1640 1999 43
2018 2008 2174 2113 45
2167 2047 2688 2143 47
1948 2023 2364 2059 49
1980 2067 1563 1955 52
2245 2110 1718 1992 54
2064 2088 1833 2080 56
1847 2011 2405 2040 58
2060 1976 2143 2067 60
2047 1975 1852 1947 62
1792 2012 1811 2020 65
2019 2024 2185 2028 67
2136 2023 2085 2015 69
1843 2035 2163 2001 71
2011 1998 2248 2137 73
2257 2041 1927 1983 75
2071 2141 2155 2086 77
1954 2071 1923 2049 80
2241 2068 1693 1999 82
2070 2005 1886 2028 84
1913 2054 1774 2063 86
2176 2103 2404 2271 88
2144 2120 1993 2025 90
1945 2115 2023 1957 92
2098 2040 2137 1997 94
2194 2043 2567 2094 96
1926 2038 2069 1956 98
2017 2053 1888 2003 99
2243 2032 2056 2102 101
1989 1950 1881 1964 103
1944 2146 2099 2111 105
2256 2086 2211 2205 107
2106 2110 2108 2121 108
1932 2080 2295 2204 110
2179 2055 1671 1888 111
2181 1991 1577 1863 113
1896 2074 2036 2019 114
2057 2040 2130 2090 116
2210 2103 2113 2135 117
1929 2116 2113 2120 118
1897 2014 1920 1973 119
2224 2065 1975 2036 120
1925 1983 1974 1979 122
1885 2001 2031 2031 123
2227 2055 2073 2062 123
2096 2034 2032 2064 124
1818 2015 2030 2015 125
2141 2008 1990 1984 125
2203 2082 2090 2067 126
1848 2010 1995 1979 126
2164 2172 2197 2154 126
2233 2066 2073 2141 126
2022 2180 2198 2247 126
1987 2085 2066 2146 126
2239 2056 1957 2027 126
1968 2023 2021 2037 126
1826 2053 2111 2115 126
2160 1987 1829 1900 125
2174 2048 2056 2052 125
1847 2084 2192 2136 124
2183 2097 2331 2169 123
2283 2090 2222 2121 123
1907 2047 1971 1996 122
1979 2044 1976 2037 121
2135 2019 2008 2014 120
1833 2014 1969 1978 119
1765 2015 1949 1990 117
2075 2033 2002 2044 116
2038 2049 2037 2057 115
1818 2055 2033 2045 113
2169 2078 1987 2045 112
2208 2081 2071 2071 110
1897 2048 1923 2027 108
2066 2067 1953 2019 106
2223 2050 2212 2141 105
1951 2092 2235 2127 103
1931 2053 2302 2148 101
2213 2060 2103 2072 98
1962 2012 1960 1979 96
1904 2043 2000 2009 94
2262 2072 1974 2022 92
2144 2064 1887 2027 89
1871 2057 1733 1999 87
2193 2084 1945 2035 85
2200 2084 2140 2094 82
1972 2057 2237 2112 80
2074 2039 2008 2029 77
2232 2040 1942 1994 75
1991 2058 2228 2111 72
2111 2117 2461 2155 70
2294 2095 2351 2201 67
2073 2115 2045 2111 65
1837 1990 1892 1995 63
2145 1974 1855 1932 60
2053 2045 1875 1995 58
1860 2036 1881 2001 56
2126 2072 2015 2026 54
2197 2061 2049 2002 53
1929 2081 2084 2063 51
2043 2082 1963 2057 49
2232 2061 2008 2077 47
1931 2048 1884 2006 45
2009 2112 1886 2052 43
2198 2050 1840 2001 41
2029 2053 2140 2083 39
1875 2024 2377 2071 37
2148 2050 2303 2063 35
2099 2081 2009 2057 34
1903 2101 1987 2079 32
2083 2088 1944 2079 30
2218 2074 2095 2091 29
1969 2083 2127 2100 27
2021 2065 2039 2033 26
2200 2049 2012 2036 25
1964 2046 2039 2033 24
1904 2019 2096 2040 23
2181 2031 1979 2056 22
2073 2031 1800 1995 21
1886 2049 1749 2036 21
2099 2019 1919 2056 20
2160 2049 2097 2057 20
1902 2044 1879 2054 19
2121 2088 1995 2028 19
2229 2082 1675 2059 19
1944 2051 2219 2135 19
1945 2035 2337 2144 19
2167 2050 2466 2068 19
1989 2098 2327 2077 19
1862 2054 2198 2031 19
2173 2063 2247 2101 19
2165 2032 2397 2105 20
1931 2112 1818 2000 20
2152 2162 1703 2051 21
2307 2159 1865 2135 22
1905 2078 2107 2040 23
2103 2082 1815 1996 24
2310 2028 1656 1955 26
1953 2043 1683 2048 27
1931 2005 2352 2216 28
2202 2056 2757 2220 30
2076 2129 2546 2085 31
1929 2132 2104 2018 33
2221 2067 2263 2097 35
2078 2007 2621 2233 37
1853 2082 2193 2170 39
2039 2122 1889 1984 41
2151 2111 1456 1902 44
1875 2020 1362 1918 46
2076 2039 1907 2110 48
2287 2116 2520 2197 51
1960 2017 2591 2057 53
1937 1941 2020 1870 56
2104 1953 1384 1839 58
1960 1973 1662 2029 60
1871 2119 2308 2103 63
2130 2031 1994 2024 65
2150 2087 1833 2026 68
1855 1989 1728 1931 70
2109 2078 2341 2135 72
2109 1929 1932 2011 75
1917 1987 1888 1909 77
2079 2113 2413 2296 79
2261 2110 2701 2246 81
2033 2169 2464 2140 84
1884 1994 1604 1823 86
2207 2000 1124 1681 88
2062 2081 1822 1947 90
1823 1987 2460 2239 92
2165 2129 2259 2155 94
2209 2070 1635 1917 96
1899 2038 1723 1947 98
2046 1980 2276 2171 100
2195 2078 2183 2102 101
1890 2024 1919 1969 103
2019 2071 1546 1804 105
2239 2033 1980 2060 106
1984 2005 2228 2136 107
1883 2126 2218 2143 109
2172 2024 2005 2011 110
2077 2123 1899 1981 112
1901 2055 2025 2047 113
2155 2034 2087 2063 114
2200 2102 1995 1979 115
1930 2063 2069 1982 116
2139 2181 2191 2154 117
2072 1853 1879 1876 118
1862 2029 2053 2035 119
1935 2061 2060 2008 120
2199 2059 2053 2004 120
2232 2249 2227 2313 121
1969 2139 2106 2267 121
2338 2208 2083 2320 121
2112 2085 1931 2153 121
1854 2064 1975 2081 121
2175 2123 2177 2089 121
2213 2072 2383 2162 121
1797 2037 2210 2028 121
1923 2002 2075 2011 121
2161 2037 1956 1975 120
1817 2010 1969 1959 120
1907 2035 2039 2026 119
2204 2038 2004 2018 118
2063 2079 2064 2078 117
1941 2060 2057 2077 116
2160 2031 1957 2034 115
2109 2039 2008 2034 113
1829 2006 1958 2002 112
2144 2035 1862 1997 110
2176 2059 2032 2085 109
1907 2077 2235 2139 107
1953 2029 2229 2069 105
2184 2024 1997 1972 104
1896 2011 1920 1993 102
1891 2045 2050 2110 100
2184 2061 2145 2114 97
2037 2061 2112 2069 95
1928 2072 1990 2000 93
2139 2064 2098 2065 91
2166 2043 2013 2040 88
1920 2032 1797 1980 86
2121 2062 1900 2033 83
2283 2107 2126 2114 81
2035 2080 2035 2054 78
2054 2059 1984 2031 75
2303 2085 2032 2060 73
2061 2092 2157 2079 70
1934 2059 2149 2070 67
2175 2020 2090 2087 65
2123 2022 2189 2094 62
1819 2050 2311 2131 59
2133 2024 2051 1991 57
2177 2043 1750 1967 54
1807 2026 1773 1977 52
2081 2052 2138 2063 50
2242 2051 2221 2047 48
2034 2103 2125 2037 46
2023 2103 1967 2044 44
2232 2086 1958 2084 42
2059 2107 2112 2127 40
1982 2134 2136 2149 38
2230 2135 1918 2078 36
2155 2120 1712 2054 35
1841 2047 1927 2056 33
2037 1996 2107 2029 31
2057 1941 2269 1967 30
1827 1974 1979 1934 28
2016 2048 1800 1942 27
2228 2089 1786 2041 25
1944 2095 2096 2137 24
1967 2075 2459 2183 23
2217 2072 2451 2116 22
2061 2076 2367 2086 22
1911 2041 2014 2005 21
2144 2029 1971 2059 21
2110 2007 2087 2027 21
1843 2022 1994 2059 21
2089 2051 1506 1946 21
2173 2050 1117 1891 21
1931 2077 1889 2033 21
2007 2052 2706 2233 21
2233 2084 2912 2178 22
1996 2094 2231 2111 22
1927 2071 1741 1996 23
2165 2063 1800 2062 24
2065 2055 1924 2095 25
1899 2011 2176 2095 26
2232 2063 2019 2026 27
2183 2060 2222 2033 28
1898 2101 1974 2031 30
2098 2089 2277 2154 31
2153 2046 2340 2166 33
1962 2076 2373 2102 35
2072 2111 1896 2043 37
2220 2107 1662 2005 38
2033 2119 2061 2002 40
1982 2071 2305 2156 42
2211 2042 2231 2134 44
2109 2087 2103 2148 46
1875 2042 1928 1968 49
2084 2040 1946 2023 51
2183 2043 2091 2043 53
1890 2021 1809 1958 55
1984 2049 1961 1929 57
2244 2045 2039 2061 60
1873 2023 1793 1932 62
1967 2123 1717 2115 65
2207 2081 2159 2131 67
2023 2067 1259 1803 69
1875 1991 1742 2141 72
1999 1890 2622 2067 74
2063 2041 2986 2341 77
1768 2103 3134 2234 79
2071 1985 2820 2027 82
2206 2036 2836 2067 84
1935 2110 2677 2086 87
2040 2150 1531 1919 89
2312 2142 1057 1907 92
1992 1997 1405 1928 94
1904 1916 1485 1876 96
2279 1940 1234 1866 98
2049 1963 1235 1809 100
1908 2141 2080 2058 102
2225 2060 2103 2164 104
2164 1973 2179 2213 106
1922 2171 2394 2231 108
2095 2133 2314 2063 109
2317 2143 2337 2125 111
1975 2042 1990 2042 112
2041 2157 1897 2047 114
2203 2116 2189 2086 115
1985 2132 2104 2059 117
1866 1941 1864 1969 118
2179 1996 1946 2007 120
1962 1924 1926 1922 121
1763 1932 1883 1914 122
2107 2040 1998 2024 123
2053 2003 2012 1979 124
1994 2175 2217 2251 125
2066 2008 2032 2068 126
2210 2105 2088 2107 126
1992 2132 2121 2145 126
1930 1890 1952 1947 127
2314 2183 2139 2186 127
1998 2117 2075 2147 127
1957 2134 1931 2103 127
2181 2082 2120 2110 126
2002 2014 2069 2001 126
1842 2082 2111 2037 126
2069 1966 2055 1963 125
2238 2067 2171 2107 125
1973 2073 2171 2068 124
2195 2163 2174 2149 123
2380 2139 2072 2142 122
2005 2075 2039 2064 121
1965 2077 2047 2064 120
2105 2030 1968 2018 119
1919 2021 1955 2022 118
1753 2003 1997 2008 117
1987 1944 1915 1954 115
2011 2003 2021 2004 113
1809 2070 2051 2051 112
2158 2033 1832 1952 110
2163 2061 1847 2013 108
1851 2070 2237 2189 106
1963 2062 2336 2134 104
2187 2069 2199 2069 102
1961 2030 1964 1946 99
2088 2088 2169 2153 97
2271 2079 2166 2158 95
2152 2104 1915 2075 92
1928 2025 1892 1951 90
2085 2026 2096 2021 87
2189 2064 2290 2097 85
1897 2007 2032 2018 82
2146 2087 1838 2007 79
2250 2050 1939 2031 77
1893 2035 1732 1956 74
2055 2005 1697 1987 71
2325 2097 2022 2075 69
2022 2076 2325 2080 66
1900 2036 2458 2091 64
2244 2060 2197 2119 61
2050 2057 2104 2099 58
1901 2052 2175 2127 56
2219 2039 2166 2057 54
2144 2036 2006 2032 51
1928 2062 1934 2009 49
2031 2003 1882 1930 47
2252 2101 1999 2074 44
1949 2086 1813 2038 42
2013 2105 1886 2090 40
2253 2071 2061 2072 38
1994 2086 2135 2069 36
1877 2068 2041 2060 34
2177 2049 1863 2031 32
2086 2051 2071 2084 31
1865 2059 2286 2099 29
2131 2105 2179 2088 27
2227 2128 1998 2040 26
1927 2103 1999 2069 25
2039 2068 2181 2094 23
2243 2050 2299 2120 22
1947 2049 2071 2044 21
2021 2078 1812 2015 20
2217 2080 1820 2080 19
2004 1996 1891 2000 19
1871 1974 1951 1968 18
2063 1910 1623 1823 18
2015 1956 1785 1914 18
1796 1979 2119 2097 18
2090 2015 2253 2109 18
2187 2023 2119 2083 18
1920 2072 1962 2043 18
2060 2077 2155 2046 18
2208 2085 2056 2077 18
1992 2087 1964 2026 19
1983 2066 1857 2024 19
2207 2079 2085 2155 20
1984 2044 2259 2113 21
1889 2091 2360 2118 22
2233 2152 2278 2122 23
2115 2071 2356 2049 24
1949 2050 1918 2003 26
2178 2088 2042 2046 27
2243 2112 1877 2091 29
2000 2167 2021 2056 31
2064 2160 2194 2145 33
2273 2068 2074 2032 35
2000 2087 2307 2112 37
2097 2136 1738 2077 39
2282 2039 1807 2095 41
2045 2011 1748 2143 44
1841 1951 2935 2109 46
2056 1947 2712 2091 48
2081 2042 2268 1960 51
1900 2108 1993 2027 53
2105 2118 1719 1991 56
2169 2139 1443 1886 59
1835 1970 1287 1835 61
1947 2064 942 1842 64
2101 1878 1934 2115 66
2016 2112 2200 2179 69
1856 1960 2802 2177 71
2173 2127 2447 2116 73
2093 2111 2256 2095 76
1794 2052 2462 2119 78
2189 1970 2253 1969 80
2155 2109 2226 2090 83
1919 2020 1634 1939 85
2138 2037 1536 1962 87
2274 2168 2182 2232 89
1968 2090 2328 2220 91
2019 2067 2011 2028 94
2240 2037 1735 1917 95
1987 2009 1757 1937 97
1935 2031 2043 2094 99
2253 2064 2114 2053 101
2119 1979 1823 1931 103
1879 2057 1830 1970 104
2068 1983 1924 1979 106
2209 2071 1995 2030 107
1945 1996 1995 2046 109
1998 2093 2005 2013 110
2300 2052 2121 2114 111
2033 2195 2113 2116 113
1933 2075 2056 2057 114
2301 2199 2133 2082 115
2029 2026 2030 2009 116
1927 2082 2161 2110 117
2154 2104 2165 2137 118
2007 1973 1969 1955 119
1929 2164 2165 2188 120
2130 2097 2094 2196 120
2328 2176 2163 2208 121
1946 2073 2063 2138 121
1971 2036 1991 2040 121
2250 2056 2032 2073 121
2025 1996 1975 2014 121
2005 2056 2145 2110 121
2247 2019 2209 2099 121
2109 2100 2145 2050 121
1941 2090 2115 2092 120
2120 2112 2046 2065 120
2063 2038 2010 2026 120
1849 1976 1983 1951 119
2003 2012 1986 1977 118
2197 2098 2081 2144 117
1824 2006 1984 2034 116
1852 2005 1993 2036 115
2057 2021 1970 2008 114
1918 2035 1994 2020 112
1931 2033 1998 2037 111
2243 2066 2045 2064 109
2094 2059 2015 2048 108
1894 2071 2047 2065 106
2134 2070 2113 2051 104
2155 2070 2130 2061 102
1828 2030 1965 1995 100
2005 2039 2008 2021 98
2186 2046 2087 2061 96
1880 2047 2251 2122 94
2013 2048 2135 2041 92
2249 2041 2034 2039 89
2068 2052 1954 2000 87
1912 2055 1904 2007 84
2202 2070 1968 2072 82
2157 2053 1983 2057 79
2029 2085 2108 2098 76
2279 2153 2140 2130 74
2301 2117 2156 2107 71
1946 2066 2071 2072 68
2028 2027 1986 1999 65
2225 2021 1937 2004 63
1952 2027 1938 2003 60
1946 2019 1901 1996 57
2184 2010 1931 2009 55
2059 2024 2107 2053 52
1827 2015 2298 2082 49
2168 2030 2368 2103 47
2099 2019 2074 1991 44
1809 2007 1939 1992 42
2074 2033 1969 1999 39
2248 2053 1978 2007 37
1967 2110 1983 2049 34
2078 2093 1969 2064 32
2258 2087 1877 2067 30
1975 2081 1969 2080 28
1911 2060 2049 2075 25
2195 2051 2147 2066 23
2059 2077 1938 2024 21
1905 2140 1995 2135 19
2155 2088 2024 2082 18
2141 2069 2177 2103 16
1845 2043 2213 2069 14
2114 2083 1975 2029 13
2272 2109 1824 2040 12
2008 2110 1872 2096 11
2007 2126 2342 2202 10
2296 2134 2477 2181 9
2042 2067 2225 2028 9
1945 2066 1825 1985 9
2254 2007 1777 1964 9
2055 2026 2042 2073 9
1828 1990 1957 1994 9
1994 1947 1778 1966 9
2096 1996 1817 1979 9
1852 2018 1765 2027 10
2079 2066 1997 2049 10
2265 2130 2049 2097 11
1970 2084 2070 2071 12
1980 2063 2506 2137 12
2152 1991 2366 2078 13
1994 1997 2439 2062 15
1817 1987 2411 2037 16
2130 2079 1812 2046 17
2140 2112 1825 1977 18
1873 2120 1894 2057 20
2171 2014 2543 2064 21
2191 1988 2342 2056 23
1933 2031 1775 1984 25
2020 2063 1670 2030 26
2227 2122 1871 2077 28
2013 2134 2009 2096 30
2068 2118 1957 2090 32
2257 2106 1757 1958 34
2005 2048 1920 2048 36
1915 1975 1979 2064 39
2078 2042 2335 2026 41
2065 2046 2958 2259 44
1800 1947 2893 2093 46
1977 2064 2512 2092 49
2163 2190 1431 1985 51
1815 2089 1653 1923 54
1971 2037 2216 2146 57
2245 2069 2221 2068 59
2078 2143 1386 1947 62
1998 2097 1125 1833 65
2272 2033 1689 2044 67
2071 2057 2685 2246 70
1962 2158 2497 2272 72
2237 2117 2007 2035 74
2216 2103 1975 1997 77
1903 2034 2309 2137 79
2043 2035 2419 2141 81
2348 2090 1671 1983 84
1972 2153 1853 2147 86
2040 2148 2392 2144 88
2344 2144 2795 2389 90
1957 2005 2209 2017 92
1922 1996 1699 1902 94
2241 1983 1520 1854 96
2064 1999 1688 1870 98
1801 1988 1809 1945 99
2110 1923 1845 1928 101
2128 2011 1937 2022 103
1788 1925 1871 1926 104
2037 1995 1891 1981 106
2276 2019 1999 2046 107
1944 2108 2019 2029 109
1951 2113 2016 2037 110
2250 2095 2042 2049 111
2003 2030 2070 2064 112
1799 1964 1980 1939 113
2222 2103 2139 2049 115
2176 2170 2182 2187 116
1866 2141 2156 2219 117
2111 2105 2047 2071 117
2251 1933 1999 1968 118
1984 2095 2166 2091 119
2098 2091 2095 2073 120
2183 1998 1959 1939 120
2015 2153 2181 2243 120
1960 2204 2187 2248 121
2311 2228 2229 2320 121
2128 2177 2138 2200 121
1849 2012 2029 2027 121
2052 2027 2000 1992 121
2098 2040 2007 1998 121
1711 1905 1909 1850 120
2031 1982 1945 1954 120
2139 1960 1951 1968 120
1875 1993 2006 2027 119
1993 2016 2098 2045 118
2228 2017 2025 1997 118
1928 2003 1889 1968 117
1672 1982 1950 1978 116
2121 2048 2160 2062 115
1910 2017 2176 2055 114
1829 2045 2135 2075 113
2183 2037 1949 2023 111
2216 2062 1995 2071 110
1896 2063 2025 2067 109
2135 2060 2011 2058 107
2278 2062 1999 2045 106
1905 2046 1937 2002 104
1960 2070 2000 2050 102
2303 2081 2131 2102 100
2068 2108 2163 2126 98
1970 2106 2057 2086 96
2298 2107 1967 2056 94
2112 2057 2099 2045 92
1881 2067 2201 2079 90
2179 2072 2041 2055 87
2117 2047 1883 2015 85
1929 2057 2040 2054 83
2070 2024 2127 2093 80
2254 2026 1744 1971 78
1995 2061 1813 1982 75
1989 2066 2107 2032 73
2217 2043 2520 2138 70
1993 2011 2405 2109 67
1895 2009 2111 2067 65
2206 2056 1981 2021 63
2170 2101 2001 2060 60
1962 2071 1908 2025 58
2276 2196 2021 2142 56
2221 2110 2039 2078 54
1981 2149 2163 2137 52
2003 2044 2013 2016 50
2206 2060 1997 2047 49
1845 1949 1805 1938 47
1878 1968 1764 1926 45
2069 1934 1918 1891 43
2031 2084 2267 2099 41
1958 2119 2370 2150 39
2255 2142 2245 2118 38
2137 2129 2077 2113 36
1965 2222 2128 2175 34
2193 2164 2093 2151 33
2273 2162 2056 2143 31
1934 2082 1903 2042 29
1991 2021 1679 1985 28
2115 1968 1707 1985 26
1981 1975 2157 2026 25
1902 1999 2410 2055 24
2188 2021 2335 2029 23
2046 2016 1744 1953 22
1881 2073 1464 1986 20
2155 2054 1717 2053 20
2159 2048 2285 2144 19
1917 2019 2471 2074 18
2045 2010 2337 2011 18
2164 2043 2137 2013 17
1912 2039 2092 2040 17
1952 2032 2173 2115 17
2198 2024 1880 2029 16
1979 2063 1525 2029 16
1910 2144 1609 2000 17
2175 2076 1796 1958 17
2147 2005 1983 1987 17
1927 1970 2215 2080 17
2120 2018 2271 2181 17
2141 2068 2330 2117 18
1878 2075 2044 2025 19
2061 2084 1865 2037 19
2234 2086 2679 2174 20
1992 2031 2586 2102 21
2002 2123 2451 2071 22
2221 2157 1687 2066 24
2005 2161 1552 2033 25
1973 2069 1834 2036 27
2140 2037 1728 2006 28
2134 2052 1470 1958 30
1949 2048 1869 2014 31
2149 2029 2186 2051 33
2263 2097 1975 2013 35
1910 2128 2533 2207 36
2113 2084 2626 2256 38
2243 2111 2756 2267 40
2097 2153 2223 2147 42
2081 2146 1627 2028 45
2324 2040 1411 1921 47
2070 1989 2276 2093 49
1830 2040 2624 2120 51
2029 2107 1912 2015 53
2012 2137 1493 1930 56
1719 2031 1687 1937 58
1922 1928 2576 2106 60
2093 1938 2843 2156 63
1828 1961 1557 1864 65
1941 1989 1514 1819 67
2203 2032 1878 2019 70
1959 2039 2362 2105 72
1755 2076 2314 2152 74
2062 2075 1937 2035 76
1920 2128 1618 1944 79
1779 1943 1189 1812 81
2156 2023 1763 1913 83
2191 1975 2483 2238 85
1995 2189 2843 2326 87
2241 2071 2125 2044 89
2400 2131 1536 1849 91
2045 2069 2029 2090 93
2101 2151 2575 2355 94
2376 2130 2521 2259 96
2070 2078 2101 2076 98
1987 2131 1864 1994 100
2252 2071 1747 1911 101
2066 2001 1750 1921 103
1843 1963 1773 1915 105
2113 2017 1839 1945 106
2119 1923 1871 1935 107
1864 1983 1948 1970 109
2016 1850 1935 1895 110
2125 2009 1951 1917 111
1945 2047 2021 2051 113
1997 2235 2047 2126 114
2238 2143 2078 2157 115
2008 2052 2065 2116 116
1911 2150 2093 2120 117
2273 2209 2222 2230 117
2012 1992 2047 1987 118
1912 2141 2150 2164 119
2181 2155 2184 2229 119
2246 2145 2126 2200 119
1892 2085 2103 2122 119
2014 2015 2027 2004 119
2164 1976 1979 1974 119
1864 1985 1919 1931 119
1903 2007 2031 1994 119
2275 2063 2142 2083 119
2099 2097 2189 2120 118
1941 2094 2095 2065 118
2242 2027 1969 1989 117
2089 2037 2046 2055 116
1969 2019 2086 2062 115
2060 1975 1981 1980 115
2223 2009 1962 1994 113
1862 2027 2021 2028 112
1984 2066 2104 2107 111
2186 2047 2042 2050 110
1919 2029 2007 2048 108
1902 2068 2047 2069 107
2174 2064 2048 2055 105
2035 2056 1989 2027 104
1812 2031 1823 1953 102
2072 2036 1955 2025 100
2064 2065 2108 2091 98
1824 2089 2184 2125 96
2016 2070 2183 2116 94
2207 2071 2215 2133 92
1985 2105 2249 2129 90
2061 2120 2210 2126 87
2317 2091 1992 2037 85
1988 2018 1908 1988 83
1935 2039 1994 2025 81
2251 2052 2050 2045 78
2189 2084 2040 2074 76
2043 2135 1872 2079 74
2186 2063 1781 1999 71
2202 2050 1899 2031 69
1837 2024 2064 2030 66
2048 2027 2185 2027 64
2223 2018 2267 2086 61
1944 2054 2251 2088 59
1947 2014 1921 2014 56
2158 2014 1825 1959 54
1962 1987 1970 1961 52
1852 1983 2322 2067 50
2200 2089 2347 2117 47
2132 2067 2069 2066 45
1930 2092 1897 2002 43
2083 2059 1952 2035 41
2201 2070 2000 2057 40
1926 2047 1819 2016 38
2033 2066 1817 2023 36
2240 2068 1765 2031 34
1972 2049 1843 2029 33
2010 2116 2237 2141 31
2287 2143 2263 2139 30
2198 2152 2373 2140 28
1966 2104 2009 2039 27
2265 2125 1743 2038 26
2181 2098 1787 2097 25
1910 2100 2275 2194 24
2088 2046 2603 2167 23
2054 1984 2477 2029 22
1744 2015 2043 1964 22
2051 2038 1939 1970 21
2183 1992 1707 1975 21
1994 2001 1728 1930 21
1959 1919 1728 1965 21
2050 1950 1954 2037 21
1999 2029 2116 2055 21
1939 2097 2080 2013 21
2159 2136 1863 2013 22
2165 2114 1922 2051 22
1950 2070 1919 2136 23
2087 2093 2357 2129 23
2199 2005 2477 2114 24
1999 2077 2481 2128 25
2015 2066 2011 2052 27
2235 2114 1889 2041 28
1993 2028 2144 2056 29
1903 2027 2021 2025 30
2171 2145 2058 2107 32
2164 2191 1725 2163 34
1916 2169 2231 2151 35
2150 2100 2627 2235 37
2239 2069 2600 2132 39
1910 2096 1984 1964 41
2082 2128 1643 2028 43
2222 2098 1905 2117 45
1949 2023 2144 2161 47
2010 2135 2046 2102 49
2258 2166 1939 2043 52
2012 2111 2243 2116 54
1838 1983 2325 2020 56
2087 1947 2135 1859 58
2015 1942 1508 1779 61
1821 2023 739 1762 63
2107 2056 1614 2063 65
2157 1958 1846 2161 67
1861 1879 2494 2010 69
1931 1846 2412 2030 72
2165 2024 2326 2049 74
1949 2152 2469 2136 76
2064 2082 2243 2136 78
2293 1980 2268 1990 80
2101 2059 2195 1952 82
1833 2022 1855 1935 85
2153 2121 1557 1993 87
2095 2015 2205 2215 89
1819 2035 2603 2227 91
2068 2056 2309 2124 93
2201 2158 1659 1882 95
1963 2129 1499 1913 97
2033 1983 1927 2077 99
2311 2169 1999 2067 101
2011 1999 1624 1870 103
1969 2100 1829 1984 105
2231 2017 2295 2219 106
2025 2040 2229 2146 108
1853 2066 2073 2073 110
2190 2136 1902 1999 111
2158 2092 1983 2035 112
1878 1957 2023 2027 114
2130 2113 2010 2042 115
2264 2086 2053 2083 116
1901 2139 2100 2104 118
1953 1983 1990 1957 119
2243 1995 2016 1943 120
2099 2112 2203 2173 121
1967 2103 2125 2096 122
2269 2020 2061 1982 123
2054 2001 1971 2009 123
1930 2206 2192 2245 124
2201 2093 2094 2233 124
2368 2125 2155 2230 124
1934 2125 2106 2110 124
2057 2092 2073 2113 124
2291 2131 2054 2097 124
1897 1973 1973 1977 124
1944 2105 2159 2110 124
2207 2087 2127 2099 123
1960 2039 2092 2041 123
1783 1980 1989 1964 122
2040 1992 2011 2001 121
2089 2047 1991 2027 121
1825 1999 1922 1975 120
2059 1993 2017 2008 119
2247 2042 2103 2037 118
1831 2019 2104 2051 116
1950 2101 2084 2096 115
2081 2104 2047 2107 114
1856 2112 2129 2151 112
1792 2073 2061 2076 111
2226 2066 1992 2023 109
2014 2031 1988 2013 107
1792 1961 1894 1939 105
2196 2046 1765 1940 103
2175 2068 2033 2075 101
1879 2057 2352 2176 99
2037 2047 2345 2144 97
2206 2098 2162 2099 95
1851 2037 1994 2028 92
2017 2068 1993 2056 90
2359 2074 2131 2089 88
2111 2082 1956 2039 85
1995 2029 1938 1988 83
2337 2030 2073 2053 80
2133 2065 1805 2007 78
1935 2083 1690 1985 75
2253 2059 2055 2061 73
2183 2013 2461 2145 70
1891 2047 2429 2094 68
2049 2016 1996 2002 65
2248 2055 1790 1993 63
1964 2097 2070 2124 60
2035 2099 2153 2083 58
2281 2085 2128 2063 56
2004 2039 2015 2013 53
1906 2037 2063 2025 51
2237 2077 2024 2063 49
2107 2076 2047 2055 47
1890 2080 1923 2038 45
2175 2081 1902 2039 43
2121 2076 1848 2031 41
1873 2088 1999 2082 38
1998 2030 2146 2079 36
2162 1979 2041 1980 35
1896 2016 1997 1992 33
1947 2061 1753 2031 31
2291 2169 2170 2189 29
2076 2132 2267 2157 27
1963 2127 2416 2145 26
2233 2091 2214 2068 24
2111 2063 2009 2117 23
1827 2048 2138 2058 22
2071 2037 1945 1987 21
2119 1956 1638 1884 20
1827 1982 1593 1925 19
1974 1966 1960 1978 19
2183 1997 2216 2019 18
1962 1998 2227 1993 18
1919 2005 1943 1962 18
2164 2008 1855 2051 18
2029 2067 1888 2088 18
1908 2044 1722 2060 18
2199 2064 2095 2026 18
2147 2020 2073 2045 18
1881 2067 2291 2068 19
2072 2088 2073 2081 19
2214 2147 2047 2115 20
1972 2105 2134 2187 21
2049 2109 2670 2182 22
2239 2090 2225 2054 23
2032 2093 2048 1979 25
1929 2063 1688 2003 26
2234 2063 1837 2080 28
2090 2109 2011 2070 30
1979 2132 1886 2061 31
2212 2161 2326 2098 33
2242 2161 2306 2149 35
1924 2066 2368 2153 37
2102 2050 2021 2096 39
2207 2061 1777 2023 41
1896 2071 1813 1998 44
2037 2054 2024 2031 46
2218 2022 1835 2025 48
2035 2023 2305 2091 51
1955 2179 2160 2223 53
2068 2011 2315 2158 55
1973 1991 2162 2042 58
1788 1929 2182 1956 60
2038 1986 1695 1823 63
2082 2028 1840 1882 65
1815 2035 1645 1881 68
2013 2025 2103 2125 70
2183 2072 2634 2202 73
1912 1935 1880 2009 75
1977 2103 2073 2028 78
2257 2102 1612 1892 80
2064 2043 2248 2065 83
1898 2054 2409 2200 85
2296 2211 2429 2163 87
2136 2184 1973 2117 89
1937 2124 1671 1975 91
2167 1985 2363 2111 94
2247 2089 2174 2112 96
1880 2038 1990 2013 98
2072 2033 1774 1950 100
2237 2032 1876 2019 102
1920 1993 1917 1968 104
1970 1990 1963 2027 106
2318 2086 1993 2067 107
2069 2093 2047 2086 109
1917 2147 1957 2038 110
2193 2025 1954 2032 112
2046 1934 1951 1973 113
1871 2089 2032 2051 115
2016 2015 1985 1989 116
2063 2020 1957 1935 117
1886 2029 2122 2143 118
2127 2294 2253 2307 120
2326 2202 2176 2181 121
2082 2130 2103 2036 121
1913 1995 2024 1972 122
2188 2039 2055 2061 123
2206 2240 2200 2331 123
1943 2088 2072 2184 124
2262 2127 2048 2122 124
2183 2071 2096 2114 124
1868 2103 2139 2088 124
2095 2065 2125 2067 123
2171 1984 1971 1960 123
1781 1902 1891 1877 123
1976 2034 2039 2039 123
2177 2012 1975 1989 122
1898 2033 2004 2025 122
1984 2017 1986 2012 121
2176 1972 1964 1983 120
2238 2041 2077 2061 119
1946 2004 2045 2010 118
2036 1975 1999 1965 117
2045 2053 2054 2062 116
1572 2020 1935 2001 115
1799 2039 2039 2053 113
2110 2090 2087 2088 112
1906 2056 1960 2012 111
2002 2078 2005 2074 109
2232 2036 2037 2083 107
2000 2042 2113 2081 105
1896 2005 1858 1958 104
2259 2133 2125 2128 102
2086 2109 2364 2248 100
2006 2142 2349 2169 98
2189 2108 2210 2102 95
2192 2033 1959 1989 93
1900 2043 2013 2025 91
2004 2032 1981 2011 89
2220 2015 1809 1986 86
2039 2053 1797 1989 84
1991 2010 1838 1992 82
2218 2058 1867 1955 79
2125 2019 2267 2103 77
2006 2122 2344 2158 74
2266 2102 2251 2110 72
2219 2087 2134 2077 69
1919 2005 1974 1988 67
2104 2025 2038 2027 65
2195 2090 2138 2097 62
1959 2099 2061 2095 60
1983 2056 1936 2085 57
2223 2061 1815 2039 55
1956 2025 1695 1957 53
1885 2030 1851 1985 51
2145 2039 2107 2027 49
2068 2053 2321 2076 46
1892 2043 2287 2034 44
2160 2078 2310 2117 42
2180 2083 2139 2088 40
1911 2088 1999 2049 38
2027 2075 1888 2029 37
2179 2060 1915 2009 35
1923 2064 2033 2063 34
1981 2051 2169 2089 33
2186 2001 1847 1968 31
1981 2036 1584 1949 30
1896 2094 1728 1987 29
2129 2085 2133 2107 29
2184 2085 2560 2213 28
1901 2041 2384 2173 27
2168 2018 2062 2046 27
2156 2052 1939 2047 27
1867 2026 1989 2017 27
1991 2029 1984 1974 27
2196 2015 1891 1977 27
1927 2089 1759 1996 27
1994 2036 2092 2099 28
2217 2071 2417 2195 28
1971 2073 1975 2128 29
1952 2072 1928 2014 30
2197 2061 1781 2013 30
2211 2123 2502 2108 32
2043 2260 2238 2133 33
2219 2273 1913 2112 34
2269 2112 2155 2263 35
1950 1966 2225 2119 36
1999 1979 1914 2023 38
2126 1991 1872 1888 39
1883 2046 1876 1990 41
1978 2064 2361 2144 43
2211 2074 2301 2088 44
2104 2085 2034 2073 46
1937 2073 1949 1964 48
2254 2145 2296 2165 50
2096 2065 1960 1995 52
1832 2021 1813 1953 55
1988 2046 2089 2131 57
2078 2016 2383 2217 59
1906 2095 1425 1980 61
2021 2053 1044 1725 63
2154 2000 935 1810 66
1869 1913 2552 2021 68
1864 1944 3011 2291 70
2129 2035 2901 2185 72
2104 2131 1672 1997 75
1935 2163 2035 1997 77
2122 2106 2285 2115 79
2174 2110 2152 2219 81
1810 1984 2191 2056 83
2097 2023 1705 1975 86
2205 2037 1977 1904 88
2048 2154 2518 2196 90
2047 2058 2152 2057 92
2257 2036 1677 1967 94
1960 1944 1550 1846 96
1936 2077 1762 1945 98
2183 2002 1903 2036 100
2114 1959 1815 2048 102
1915 2034 1831 1975 104
2133 2073 2177 2133 106
2198 2137 2305 2147 107
1916 2056 2062 2064 109
2048 2068 1879 2007 110
2205 2087 1973 2035 112
1939 2041 1994 2025 113
1991 2073 2008 2036 115
2231 2085 2077 2079 116
2074 2153 2152 2121 117
1657 1743 1824 1781 118
2392 2337 2331 2290 119
1915 1926 1918 1867 120
1935 2185 2185 2165 121
2103 2097 2037 2047 122
2109 2004 2021 2083 123
2027 2152 2129 2225 123
2124 2154 2189 2207 124
2271 2173 2123 2152 124
2017 2097 2085 2107 124
1910 1953 1960 2004 124
2211 2050 2065 2101 124
2015 2020 2013 2011 123
1831 1927 1971 1943 123
2085 1978 2034 1999 123
2154 2056 2089 2056 122
1874 2079 2071 2058 122
2193 2090 2107 2095 121
2254 2075 2074 2073 120
1967 2058 1995 2047 119
2037 2049 1989 2025 118
2275 2047 2157 2109 117
2062 2064 2159 2084 116
1900 2043 2021 2014 115
2185 2079 2010 2066 113
2010 2049 2091 2081 112
1744 2056 2149 2105 110
2112 2046 2043 2053 109
2091 2035 1963 2004 107
1778 2011 1982 2011 105
1935 1981 1896 1959 103
2162 2057 1944 2014 101
1853 2023 1963 2023 99
1922 2055 2000 2052 97
2174 2043 2100 2082 95
2001 2059 2179 2075 93
1880 2072 2134 2085 91
2267 2054 2010 2032 88
2100 2100 1997 2025 86
1955 2051 2155 2067 83
2229 2074 2266 2171 81
2231 2112 2046 2080 78
1956 2058 1969 2056 76
2119 2060 2010 2027 73
2264 2033 1949 2018 71
2039 2077 1829 2001 69
2063 2079 2063 2076 66
2284 2063 2180 2095 64
2087 2097 2068 2061 61
1880 2063 1839 1981 59
2160 2000 2043 1998 57
2024 1949 2295 2037 54
1813 2004 2189 2041 52
2086 2044 1926 2008 50
2175 2087 1974 2062 47
1907 2079 2085 2091 45
2027 2097 2089 2051 43
2283 2082 1921 2053 41
1951 2053 1908 2037 39
1993 2126 2038 2116 37
2281 2113 2067 2090 35
2062 2104 2219 2066 33
1985 2119 2115 2098 31
2208 2102 2106 2098 30
2120 2068 1987 2052 28
1901 2059 1979 2072 27
2072 2038 2071 2059 25
2193 2104 2050 2106 24
1907 2055 2096 2044 23
1999 2056 2084 2080 22
2223 2088 2214 2105 21
2017 2066 2116 2127 20
1953 2048 1795 1988 20
2178 2017 1585 1961 19
2024 1991 1827 1972 19
1841 2023 2386 2125 19
2025 1984 2377 2043 19
2170 1995 1969 1971 19
1851 2018 1645 1965 19
2034 2005 1798 1966 19
2102 2025 2275 2120 19
1947 2037 2129 2031 19
1968 2057 1935 2108 20
2267 2064 1563 2031 21
2022 2122 1881 2077 21
2027 2100 2271 2100 22
2163 2093 2671 2071 23
2092 2023 2727 2068 24
1928 2085 2017 2065 25
2125 2059 1609 2049 27
2248 2076 1931 2061 28
2036 2134 2554 2162 30
2162 2237 2019 2204 31
2304 2137 2300 2118 33
2006 2101 2477 2262 35
2028 2045 2363 2086 37
2219 2123 1876 2067 39
2064 2113 1634 1989 41
1912 2025 1663 1927 43
2166 2007 2124 1967 46
2046 1997 1805 1891 48
1827 2033 1964 2024 51
2087 2009 2451 2191 53
2161 2042 2284 2061 56
1791 2004 2157 2012 58
1911 1968 1664 1973 60
2141 2026 1762 2008 63
1906 2067 1523 1913 65
2002 2071 1494 1850 68
2176 1995 1737 1908 70
2016 1996 2407 2143 72
1827 2026 2898 2287 75
2105 2063 2495 2144 77
2177 2105 1761 1992 79
1951 2047 1461 1871 81
2151 2084 2256 2127 83
2250 2063 2474 2173 85
1997 2085 2289 2193 88
2015 2079 2163 2181 90
2263 2112 2069 2119 92
2002 2006 1738 1921 94
1909 1971 1630 1844 95
2203 2029 2055 2085 97
2055 1964 2049 2057 99
1871 2181 2073 2064 101
2205 2128 1867 1973 103
2206 2147 1869 1974 104
1963 2093 2031 2083 106
2159 2086 2036 2063 107
2242 2083 2032 2057 109
1909 1984 2047 2047 110
1950 2029 2036 2039 111
2189 1963 1976 1986 113
1937 2081 2053 2043 114
1726 2002 1965 1937 115
2027 1886 1897 1826 116
2309 2343 2379 2241 117
1823 2014 2051 2052 118
2231 2111 2144 2167 119
2222 2045 2047 2128 119
1935 2069 2089 2071 120
2148 2265 2213 2314 120
2267 2099 2058 2159 121
2075 2125 2125 2206 121
1955 2063 2079 2085 121
2222 2150 2112 2120 121
2061 2040 2032 2060 121
1897 2021 1987 1986 120
2161 2020 2007 1995 120
2138 2033 1956 1991 119
1929 2019 2039 2043 119
2150 2097 2183 2112 118
2122 2021 2106 2037 117
1857 2064 2021 2039 116
1931 1997 1875 1960 115
1966 2015 2062 2069 114
1804 2057 2091 2031 112
1747 2031 2128 2063 111
2200 2054 2093 2062 109
2164 2048 2027 2057 107
1893 2021 2035 2049 105
2220 2056 1983 2027 104
2137 2034 1935 2012 102
1877 2003 1908 1989 99
2009 2004 1909 1964 97
2134 2026 2098 2048 95
1843 2040 1985 2056 92
1985 2057 2037 2078 90
2260 2098 2067 2129 87
2089 2138 2097 2104 85
2005 2125 2080 2075 82
2319 2141 2199 2169 79
2200 2040 2289 2131 76
1906 2027 2368 2125 74
2234 2008 2069 1989 71
2150 2030 1797 1955 68
1877 2072 1779 1937 65
2114 2076 2031 2053 62
2276 2064 2150 2093 60
1987 2040 2073 2052 57
1933 1987 1879 1981 55
2221 2004 1712 1937 52
1941 2007 1904 1976 50
1870 2043 1898 1992 48
2219 2041 1915 1991 46
2106 2085 2084 2050 44
1901 2105 2264 2130 42
2160 2098 2309 2124 40
2154 2037 2150 2023 38
1872 2063 1927 2010 36
2093 2121 2064 2080 34
2255 2116 2133 2117 32
1935 2068 1945 2077 31
1934 2091 1841 2027 29
2220 2092 1973 2083 28
2043 2119 2174 2132 26
1904 1995 2169 2061 25
2217 2071 2023 2066 24
2139 2086 1848 2056 23
1914 2100 1843 2041 23
2161 2049 2168 2112 22
2151 2057 2478 2096 22
1900 2071 2398 2094 21
2014 2015 1992 1983 21
2176 1994 1605 1943 21
1920 2016 1561 1955 22
1890 1992 2101 2038 22
2102 1981 2433 2121 22
1968 2002 2289 2029 22
1914 2027 2017 1982 23
2144 2139 1699 2047 24
2157 2093 1762 2093 25
1869 2007 2142 2172 26
2138 2027 1981 1952 27
2228 2109 1963 2010 28
1953 2056 2024 2143 30
2030 2066 2074 2135 31
2158 1963 2484 2208 33
2110 2126 2671 2169 34
1989 2214 2815 2233 36
2251 2194 2091 2079 38
2075 2106 2234 2011 40
1899 2094 2052 1997 42
2153 2113 2086 2054 44
2190 2118 1895 1978 47
1928 2030 1330 1858 49
2022 2015 1708 1958 52
2123 2009 2316 2206 55
1917 2003 2538 2151 57
1959 2077 2386 2144 60
2163 2112 1739 1919 62
1978 2075 1201 1869 65
1863 1988 1356 1905 67
2132 1980 1839 1898 70
2082 2007 2467 2059 72
1845 1993 2141 1976 75
2231 2031 1505 2130 77
2237 2170 1733 2070 79
1916 2042 2445 2174 81
2003 2042 2912 2153 84
2373 2139 2768 2309 86
1943 2148 1850 2019 88
2017 2029 1543 1823 90
2245 1859 1717 1863 92
1924 1979 2274 2099 94
1813 2058 2202 2116 96
2225 2111 2079 2152 98
2097 2000 1831 2012 100
1808 1951 1813 1959 102
2112 2040 2016 1985 103
2175 2047 2010 2021 105
1887 2021 1887 1993 107
2001 2037 1895 2014 108
2301 2131 2027 2097 110
1962 2089 1916 1988 111
1970 2059 1983 2041 112
2255 2045 2035 2046 114
1988 2036 2000 2013 115
1893 2064 2059 2071 116
2148 2056 2049 2039 117
1956 1953 1963 1924 118
1833 1995 2086 2004 119
2104 2156 2164 2094 120
2116 1959 1985 1936 121
1966 2133 2118 2046 122
2209 2264 2228 2342 122
2412 2321 2345 2435 123
2204 2273 2195 2333 123
1965 2002 1971 2059 123
2165 1987 1993 2024 124
2023 2039 2016 2064 124
1810 1902 1901 1907 123
2134 1952 1979 1895 123
2073 1977 1987 1933 123
1934 2113 2156 2134 123
2134 2097 2114 2101 122
2362 2197 2214 2182 122
1954 2022 2035 2035 121
2011 2000 1986 1998 120
2415 2080 2071 2106 120
1930 2015 1956 2023 119
1834 2036 2017 2040 118
2125 2072 2079 2109 116
1906 2050 2067 2051 115
1605 2048 2042 2014 114
1865 2014 2039 2025 112
2002 2077 2075 2071 110
1867 2079 2081 2057 109
2170 2124 2121 2109 107
2388 2083 2088 2105 105
1972 2070 2075 2081 103
1919 2003 2001 2018 101
2249 2034 1969 2003 99
1955 2011 1997 2006 97
1793 2010 2033 2019 94
2162 2019 2006 2017 92
2089 2011 1890 1985 89
1859 2021 1858 1975 87
2185 2046 2029 2069 84
2255 2089 2262 2135 82
2035 2175 2413 2262 79
2263 2201 2191 2210 76
2331 2099 2008 2075 73
2050 2042 2075 2047 71
1923 2019 1972 1983 68
2294 2036 1949 1985 65
2108 2055 2047 2017 63
1877 2026 2123 2004 60
2130 1979 2046 1984 58
2076 1972 1771 1926 55
1839 2018 1745 1973 53
2078 2030 2093 2056 50
2193 2025 2182 2051 48
1879 2012 2010 1982 45
1997 2048 1979 2013 43
2181 2081 1878 2046 41
2060 2099 2109 2117 39
1894 2075 2193 2102 37
2201 2055 2134 2033 35
2042 2103 2083 2058 33
1775 2073 1805 1959 31
2176 2109 1965 2060 29
2244 2131 2260 2179 27
2001 2163 2463 2217 26
2169 2144 2301 2148 24
2220 2074 2016 2037 23
1892 2053 1786 1987 22
1930 2049 1753 2017 21
2237 2013 1799 2015 19
1990 2013 1922 2020 18
1941 2047 1857 2067 18
2235 2085 2108 2049 17
2105 2070 2062 2022 16
1843 2040 2217 2026 16
2085 2010 2138 2043 15
2111 2005 2154 2115 15
1829 2022 1926 2026 15
2061 2079 1768 2030 15
2163 2013 2200 2071 15
1997 2088 2466 2155 15
1967 2076 2504 2060 15
2241 2099 1809 1956 16
1968 2038 1499 1929 16
1953 2014 1704 2070 17
2189 2079 2201 2181 18
2210 2187 1899 2138 19
2028 2123 2267 2177 20
2107 2091 2512 2140 21
2232 2121 2280 2142 22
1921 2117 2068 2006 23
2022 2063 2031 2064 25
2215 2057 2564 2194 26
1915 2063 1960 2148 28
1987 2047 1697 2053 29
2157 2029 1660 1956 31
2024 2026 1995 2024 33
1970 2072 2455 2047 35
2210 2141 2364 2096 37
2211 2135 2366 2109 39
1898 2082 2191 2161 41
2104 2062 2338 2142 44
2137 2028 1656 2011 46
1989 1993 1753 1848 48
2047 1999 1937 2024 51
2296 2016 2064 2020 53
1914 1992 2246 2062 55
1817 1911 1834 1994 58
2047 1998 2024 1980 60
1912 2015 1733 1917 62
1895 2105 983 1753 65
2184 1986 951 1937 67
2117 2011 2272 2192 69
1979 2035 3332 2406 71
2000 2036 2657 1980 74
2156 2146 2121 1956 76
1691 2072 2175 2111 78
1678 2124 2671 2326 80
1979 2103 2216 2251 82
1800 1945 1556 1820 85
1948 2096 1602 1833 87
2270 2065 1953 1990 89
2273 2081 1979 2047 91
2041 2028 1887 2002 93
2254 2003 2089 2127 95
2338 2211 2071 2118 97
2033 2099 1873 2035 99
2164 2027 1826 1967 100
2270 2042 1878 1940 102
2051 2063 1973 2048 104
2129 2181 2075 2156 105
2449 2200 2175 2204 107
2063 2091 2016 2024 108
1864 2018 2004 1979 110
2193 2031 2014 2012 111
2096 2102 2131 2152 112
1858 2062 2077 2141 114
2118 2023 1974 1967 115
1989 1807 1860 1752 116
1736 2026 1986 1946 117
2096 2150 2222 2287 118
2185 2145 2075 2154 119
2150 2253 2275 2283 120
2167 2182 2136 2073 120
2459 2256 2317 2272 120
2195 2197 2194 2281 121
1840 2005 2032 2063 121
2135 1988 1953 1983 121
2091 1846 1897 1851 121
2118 2292 2293 2328 121
2007 2055 2035 2041 120
2173 2145 2073 2144 120
1639 1846 1829 1835 120
1759 1887 1987 1925 119
1981 1901 1983 1903 119
1917 1963 2012 1952 118
1749 1929 1918 1927 117
2141 1976 1930 1943 116
2097 2052 2061 2077 115
1677 2047 2035 2063 114
1969 2057 1964 2066 112
1976 2047 1904 2054 111
1831 2059 2097 2096 110
2127 2093 2151 2089 108
2374 2089 2145 2096 107
1949 2032 2005 2005 105
1922 2008 1875 1955 103
2351 2081 1979 2072 101
2102 2102 2153 2127 99
1972 2087 2236 2126 97
2256 2101 2199 2114 95
2144 2100 2148 2130 92
1833 2044 1980 2019 90
2133 2003 2016 2015 87
2155 2050 1893 2028 85
1991 2103 1893 2063 82
2096 2061 2093 2128 79
2345 2061 2242 2089 77
1970 2050 1887 1996 74
1971 2083 1790 1917 71
2341 2014 1901 2038 68
2139 2136 2177 2137 65
2032 2131 2359 2261 62
2340 2152 2399 2222 59
2131 2049 2241 2083 56
1827 2052 2096 2030 53
2131 2032 1884 1972 51
2144 2008 2021 1986 48
1841 1956 2083 1962 45
2015 2013 1987 1991 43
2166 2042 1735 1955 41
1944 2042 1795 2002 38
1870 1962 1868 1918 36
2226 2054 2097 2073 34
2113 2196 2227 2161 32
1986 2217 2043 2175 30
2271 2234 2121 2221 28
2194 2131 2090 2159 27
1875 2097 2128 2109 25
2110 2060 2075 2041 23
2271 2084 2104 2052 22
1872 2063 2169 2059 21
1982 2048 2236 2087 20
2179 2026 2094 2034 19
1942 2035 2115 2086 18
1861 2005 2152 2031 17
2193 2017 2184 2041 17
2031 1993 1934 1923 17
1771 1948 1832 1921 17
2119 1982 1793 1941 17
2067 1972 1865 2021 17
1936 2078 1888 2066 17
2089 2058 1484 2015 17
2178 2074 1742 2068 18
1956 2079 2267 2192 18
1992 2051 2698 2095 19
2272 2084 2393 2100 20
2136 2179 1899 2087 21
1978 2184 1890 2122 22
2174 2099 2253 2149 23
2081 1987 2526 1969 24
1892 2040 2065 2047 26
2116 2137 1887 2026 27
2270 2200 1749 2101 29
1931 2035 2006 2083 30
2042 2088 2444 2232 32
2229 2002 2262 2063 34
1935 2059 2101 2052 36
1935 2015 2064 1952 38
2200 2032 1995 2046 40
2015 2045 2316 2127 42
1947 2039 2022 2023 44
2235 2092 1983 2011 46
2122 2050 1781 1972 48
1904 2084 2001 2097 51
2135 2079 2282 2132 53
2269 2146 1923 2123 55
1883 2083 2089 2039 57
2019 2074 2039 2118 60
2123 2026 2180 1979 62
1937 1999 1845 1919 64
1879 1984 1581 1833 66
2181 1988 1872 1927 68
2013 2025 1754 2182 71
1860 2041 2242 2157 73
2138 2081 2343 2227 75
2100 2049 2543 1999 77
1791 1941 2050 1827 79
2052 1991 1497 1837 81
2213 2022 1890 2111 83
2016 2172 2306 2209 85
2100 2134 2458 2148 87
2326 2135 2057 2037 88
2019 2057 1899 2034 90
1894 2034 2027 2053 92
2196 2048 2121 2061 94
2107 2079 1787 1991 95
1855 1988 1524 1814 97
2160 2032 2127 2084 98
2146 2036 2562 2297 100
1838 1982 1755 1889 101
2064 2002 1685 1989 102
2189 2051 2043 2070 104
1919 2048 2381 2169 105
2039 2125 2373 2234 106
2254 2031 1752 1903 107
2018 2080 1852 1988 109
1832 2007 1820 1907 110
2231 2153 2138 2115 111
2100 2087 2152 2105 112
1878 2072 2291 2173 113
2149 2079 2058 2027 113
2122 2017 1789 1904 114
1785 2007 1944 2008 115
2119 2106 2103 2123 116
2130 1956 1891 1932 116
1969 2145 2101 2034 117
2009 2027 2103 2002 117
2333 2117 2112 2159 118
2066 2021 1952 2005 118
1999 2091 2033 2063 118
2261 2078 2069 2125 119
2120 1995 2042 2036 119
2049 2183 2184 2265 119
2099 2131 2075 2054 119
2180 2110 2077 2056 119
1799 1989 2017 2059 119
1886 2038 2013 2091 118
2163 2073 2066 2073 118
1938 2044 2047 2035 118
1845 1976 1988 1971 117
2159 2023 1993 2013 117
2015 2031 2001 2017 116
1787 2038 2081 2051 115
2033 2064 2130 2081 114
2011 2089 2117 2095 113
1733 2040 2016 2026 112
2001 2030 1972 2004 111
2192 2021 1994 2014 110
1947 2014 1871 1949 108
2104 2057 1983 2056 107
2325 2047 2149 2139 105
2041 2059 2221 2117 104
1953 2052 2202 2100 102
2248 2041 2039 2018 101
2122 2049 1952 2014 99
1877 2043 1930 2001 97
2080 2046 2007 2033 95
2191 2066 2126 2115 93
1913 2078 2147 2125 91
2153 2072 2052 2075 89
2299 2087 1843 2033 87
1969 2051 1884 2035 84
2015 2070 1846 2017 82
2301 2086 2081 2005 80
2055 2081 2342 2126 77
1944 2087 2494 2219 75
2207 2034 2286 2139 72
2075 2034 1913 1990 70
1829 2008 1820 1947 67
2141 2035 1903 1977 65
2224 2029 1976 2083 62
1935 2067 2103 2073 60
2089 2072 2129 2057 58
2234 2080 2036 2038 56
1906 2060 1803 1989 53
1919 2054 1912 2020 51
2207 2031 2065 2025 49
2072 2099 2306 2077 47
1919 2064 2191 2045 45
2238 2136 1981 2073 43
2201 2140 1933 2098 41
1912 2087 1921 2082 39
2127 2072 2143 2083 37
2178 2073 2291 2107 35
1893 2021 2226 2020 33
1993 2055 2083 2020 32
2239 2090 1942 2047 30
1942 2056 1836 2037 29
1932 2047 1882 2051 27
2171 2008 1938 2003 26
2048 2025 2099 2048 25
1902 2049 1953 2013 24
2170 2053 1950 2031 23
2112 2044 1880 2026 22
1847 2055 1921 2054 21
2076 2050 1975 2078 20
2196 2052 2273 2129 20
1969 2081 2507 2155 19
2000 2064 2591 2140 19
2211 2041 2165 2003 19
1969 2026 1739 1937 19
1866 2033 1627 1979 19
2097 2022 1713 1972 19
2048 2047 1885 2021 19
1849 2037 1831 2039 19
2187 2075 2017 2089 19
2217 2090 2132 2129 19
1981 2116 2309 2089 20
2044 2109 2168 2112 20
2191 2104 2001 2114 20
1951 2048 2157 2126 21
2050 2105 1792 2019 22
2238 2083 2314 2175 22
2027 2064 2231 2084 23
1882 2006 2473 2063 24
2127 2067 2320 2059 25
2118 2059 1894 1994 26
1901 2039 1695 2043 27
2028 1974 1883 2104 29
2250 2095 2531 2129 30
1863 2067 2595 2079 32
2098 2122 2214 2044 33
2242 2123 1887 1943 35
2071 2129 1550 2052 37
1986 2084 1841 2007 39
2266 2058 1832 2107 41
2004 2002 2241 2024 44
1861 2010 2269 2199 46
2132 2076 2429 2114 48
2138 2083 1747 1945 50
1865 2058 2123 2038 53
2031 2032 2034 2058 55
2135 1996 1734 2047 57
1931 2062 2038 2041 60
2043 2049 1987 1927 62
2290 2081 1791 1989 64
2074 2078 1744 2032 67
1954 2062 1910 2004 69
2192 1989 2185 2138 71
1991 1997 2606 2215 74
1847 2066 2249 2062 76
2127 2085 2232 2024 78
2020 2042 2361 2075 80
1783 1934 1901 1938 82
1987 2040 1680 1984 85
2233 2085 1910 2062 87
1919 2096 2343 2149 89
2063 2040 1952 1992 91
2225 2126 1545 1848 93
2051 2105 2038 2110 95
2014 2148 2472 2266 97
2271 2014 2292 2149 99
2156 2095 1766 1977 101
1963 2039 1501 1808 102
2293 2217 2108 2153 104
2173 2143 2255 2227 106
1899 2062 2155 2148 107
2050 2049 1992 2013 109
2174 2052 1865 1945 110
1881 2093 1981 2026 111
1904 1947 1966 1985 113
2099 1862 1849 1872 114
1974 2120 2059 2082 115
1909 2125 2084 2111 116
2283 2102 2095 2095 118
2353 2121 2103 2099 119
2068 1985 2034 1983 120
2137 2009 2050 1993 121
2127 2073 2067 2035 121
1773 2109 2187 2098 122
1723 2015 2041 2080 123
2141 2154 2202 2235 123
1967 2203 2181 2249 123
1933 2126 2054 2173 124
2312 2069 2003 2104 124
2096 1961 1967 2011 124
1958 2061 2040 2029 123
2270 2111 2078 2085 123
2196 2088 2147 2123 123
1892 2077 2109 2088 123
1977 1953 2005 1970 122
2104 1968 1914 1939 122
1884 2022 2007 2016 121
1940 2018 2016 1997 120
2230 2040 2067 2005 119
1995 2018 1987 1979 118
1936 2064 1993 2053 117
1906 2104 2147 2166 116
1870 2089 2088 2114 115
1704 2051 2010 2060 113
2014 2025 2083 2069 112
2244 1988 2013 1961 110
1860 1931 1921 1896 109
2038 1938 1691 1779 107
2274 2018 2054 2084 105
2019 2021 2211 2101 103
2040 2072 2313 2183 101
2282 2050 2001 2024 99
2003 1988 1827 1937 97
1934 2033 1977 2025 95
2187 2021 1920 1993 93
2097 2047 2009 2036 91
1935 2073 2150 2091 88
2262 2164 2170 2185 86
2305 2235 2042 2175 83
1923 2126 1881 2053 81
2120 2105 2055 2065 78
2069 1883 2069 1954 76
1927 2032 1909 1943 73
1938 1952 1949 1950 70
2285 2103 2239 2106 68
2086 2098 2437 2248 65
1986 2104 2399 2248 62
2247 2083 2129 2089 60
2146 2083 2033 2070 57
1861 2058 1972 2001 55
2046 1997 1861 1963 53
2138 2024 1624 1905 51
1929 2074 1756 1997 49
2093 2140 2009 2104 47
2237 2047 2222 2057 45
1914 2011 2125 1994 43
1895 2023 2024 1986 41
2199 2033 1864 2009 39
2026 2038 1961 2038 37
1877 2041 2040 2062 35
2113 2043 2042 2065 34
2089 2047 2151 2052 32
1895 2038 2039 2001 31
2058 2030 1947 1973 29
2138 2032 2085 2027 28
1844 2013 2181 2022 27
1935 1994 2252 2033 26
2183 2020 2064 2008 25
1970 2044 1869 2028 24
1975 2095 1824 2057 24
2181 2097 1796 2043 24
2070 2110 1876 2103 23
1993 2076 2023 2047 23
2174 2062 2106 2071 23
2157 2055 2080 2069 23
1913 2047 1644 2027 23
2011 2057 1783 2004 23
2123 2071 2206 2091 23
1947 2033 2817 2169 23
2040 2102 2720 2198 24
2259 2121 1977 2026 24
2100 2174 1450 2035 25
2080 2141 1586 2165 25
2292 2121 2210 2187 26
2160 2121 2363 2150 27
1928 2103 2681 2123 28
2130 2111 2614 2100 29
2191 2146 2274 2122 30
1992 2118 1769 2051 31
2145 2129 1578 2074 33
2272 2127 1877 2191 34
2043 2131 2240 2185 35
2051 2164 2437 2159 37
2315 2132 2271 2159 38
2195 2167 1905 2019 40
2039 2232 1867 2124 41
2306 2182 2137 2278 43
2197 2201 2310 2213 45
1855 2040 2023 2038 47
2061 1985 1678 2018 49
2071 1913 2235 1950 51
1759 1906 1975 1986 53
1861 2000 1960 1926 55
1985 1957 2248 1941 57
1924 1878 3079 2139 59
1915 1930 2080 1746 61
2248 2026 965 1767 64
2075 2091 1710 2077 66
1831 1974 3350 2392 68
2108 2011 3248 2208 71
2080 2040 1618 1767 73
1827 2022 691 1649 75
2052 2055 1583 1995 78
2165 1935 1701 2037 80
1854 1950 924 1779 82
1922 2004 1726 1989 84
2168 2091 2477 2104 87
1928 2068 2856 2144 89
1915 1992 2429 1944 91
2417 2261 1764 2102 93
2184 2242 2208 2271 94
2022 2151 2508 2345 96
2191 2092 2346 2207 98
2137 2062 1967 1957 100
2002 2063 1729 1947 102
2130 2104 2091 2137 103
2204 2016 2115 2164 105
1920 2083 2115 2100 107
1899 1975 1912 1939 108
2133 1970 1789 1906 110
1872 1963 1883 1955 111
1774 1913 1825 1880 113
2051 1925 1768 1842 114
2062 2018 1993 2012 115
1873 2021 1944 1949 116
2227 2032 1971 1992 117
2363 2114 2045 2075 118
1919 1984 1972 1959 119
1984 2035 2040 1968 120
2099 2121 2112 2120 121
1773 2108 2115 2112 122
1828 2082 2131 2138 122
2160 2148 2150 2097 123
2016 2091 2154 2189 123
2078 2219 2152 2258 123
2194 2031 1899 2041 123
2258 2238 2121 2215 123
1795 1960 1974 2010 123
2111 2040 2056 2039 123
2191 2062 2108 2074 123
1921 2096 2112 2096 123
2096 2119 2158 2123 122
2097 1920 2007 1938 122
1944 2031 2084 2037 121
1983 2072 2065 2059 120
2193 2005 1982 1994 120
2094 2031 2005 2019 119
1905 2012 1996 2027 118
2147 1997 1971 2023 117
1965 2007 1997 2023 116
1583 1998 1974 1978 115
1795 2038 1993 2026 114
1996 2062 1918 2024 112
1852 1988 1743 1909 111
2039 2035 2166 2119 109
2246 2063 2265 2126 108
2084 2080 2322 2169 106
2039 2057 1979 2017 104
2412 2085 1977 2058 103
2184 2095 2201 2109 101
1977 2079 2156 2075 99
2353 2133 2142 2125 97
2269 2099 2032 2086 94
2005 2120 2053 2112 92
2213 2128 1982 2129 90
2360 2197 1910 2139 87
1941 2061 1983 2060 85
1950 1982 1945 1952 82
2099 1925 1998 1885 80
1915 2014 2108 2024 77
1803 1992 2180 2027 74
2160 1984 1898 2006 71
2005 1970 1725 1951 68
1785 1983 1963 1947 66
2120 2055 2405 2185 63
2185 2047 2303 2090 60
1938 2095 2030 2089 58
2106 2087 1933 2023 55
2231 2051 2053 2005 53
2051 2133 2114 2086 51
1995 2079 1900 2024 48
2202 2046 1919 2015 46
2008 2047 2040 1999 44
1833 1998 1992 1961 41
2218 2096 2128 2134 39
2173 2136 2149 2162 37
2012 2173 2144 2173 34
2179 2083 2036 2090 32
2215 2121 2027 2089 30
1928 2097 1898 2082 28
2163 2156 1980 2106 25
2295 2117 2043 2117 23
2034 2144 2324 2180 22
1971 2071 2229 2081 20
2153 1991 2093 1994 18
1898 1935 1953 1943 16
1784 1951 1984 1971 15
2099 2001 2083 1993 14
2059 2002 1994 1977 13
1891 2035 2003 2015 12
2024 1994 1856 1975 11
2122 2004 1675 1952 11
1877 2014 1677 1987 10
1972 2019 1973 2093 10
2214 2059 2153 2093 10
1991 2051 1919 2007 9
1936 2065 1551 1953 9
2166 2056 1879 2048 10
2023 2017 2499 2137 10
1897 2043 2825 2118 10
2148 2060 2401 2047 10
2179 2104 1805 1987 10
1915 2109 1807 2081 11
2048 2066 2094 2107 12
2226 2092 2296 2200 12
2027 2122 1879 2104 13
2028 2107 2184 2091 14
2231 2129 2187 2077 15
2036 2096 2276 2080 16
1894 2064 1924 2051 17
2205 2073 1615 2006 18
2029 2005 1652 2007 20
1927 2035 2307 2151 21
2176 2048 2306 2049 22
2217 2102 2438 2135 24
1926 2051 2187 2066 26
2021 2029 2359 2133 27
2198 2073 2111 2066 29
1960 2080 2167 2122 31
2075 2179 2050 2106 33
2359 2219 2323 2249 35
2176 2178 2067 2148 37
2000 2123 2026 2095 39
2218 2118 1897 2057 41
2027 1998 1845 2032 43
1786 1909 1204 1819 45
2026 1877 1734 1908 47
2101 1977 2457 2020 49
1784 1967 2801 2121 51
1964 2022 2384 1955 53
2183 1989 1239 1872 55
1893 1958 1517 1891 58
1919 2019 2068 2015 60
2182 1952 2561 2123 62
2113 2197 2455 2205 64
1896 2078 1606 1940 66
2206 2079 2067 2165 68
2118 1990 1775 2031 70
1739 1960 2302 2130 72
2023 2073 2401 2131 74
2114 2073 2233 1943 76
1902 2159 2232 2088 78
2056 2006 1749 1943 80
2264 2097 1027 1861 82
1933 2003 1877 1949 84
1940 2169 2157 2147 86
2194 1919 1953 1965 87
2076 2009 1921 2065 89
1903 2079 1872 2063 90
2176 2128 1935 2043 92
2209 2211 2486 2209 93
1994 2061 2685 2391 95
2181 2222 2699 2289 96
2361 2147 2251 2207 98
2113 2258 1354 1788 99
2141 2143 1848 2043 101
2331 2170 2585 2415 102
2055 2120 2272 2183 103
1923 1984 1891 1993 105
2095 1912 1603 1758 106
2104 2071 1950 2003 107
1872 2071 1980 2018 108
2171 2043 1933 1995 109
2149 1929 1942 1965 110
2031 2101 2125 2118 111
2144 2033 2020 2042 112
2300 2063 2035 2049 113
2016 2167 2110 2125 114
1861 1993 1998 1995 114
1970 1973 1952 1966 115
1824 1970 1969 1976 116
1747 1966 1997 1986 116
2124 2104 2162 2143 117
2045 2049 2124 2111 117
1821 2033 2047 2031 117
2011 1983 1980 1950 118
2007 1899 1926 1907 118
1791 1939 1933 1915 118
2003 1999 2050 2023 118
2270 2095 2088 2155 118
1910 2028 2008 2091 118
2094 2192 2176 2216 118
2351 2160 2098 2144 118
2091 2125 2075 2102 118
1950 2075 2070 2121 117
2056 1881 1879 1887 117
2131 2071 2081 2072 116
1748 1986 2012 1977 115
2029 2039 1865 1960 114
2060 1956 1791 1907 113
1836 2075 2173 2162 112
2049 2023 2170 2074 111
2389 2046 2251 2108 110
1984 1981 1993 1946 108
1781 1982 1952 1963 107
2006 2055 2106 2073 105
1845 2094 2089 2081 104
1736 2073 1995 2039 102
2076 2069 2017 2049 101
2147 2082 2066 2089 99
1917 2090 2025 2068 97
2169 2041 1967 2015 95
2315 2023 1996 2025 93
1966 2038 2043 2045 91
2063 2035 1791 1992 89
2386 2040 1654 1996 86
2149 2087 1991 2040 84
2050 2060 2433 2183 82
2327 2076 2399 2206 79
2207 2087 2152 2088 76
1999 2133 1974 2103 74
2177 2076 2225 2130 71
2119 2060 2174 2093 69
1844 2008 2114 2062 66
1992 2040 2104 2024 64
2264 2059 2091 2044 62
1968 2073 1993 2031 60
2020 2086 1854 2006 57
2277 2106 1899 2036 55
2027 2070 2031 2064 53
1912 2065 2125 2048 51
2214 2071 2072 2042 49
2214 2163 2062 2128 47
1842 2040 1921 2013 45
2095 2041 2042 2032 43
2234 2087 2161 2052 41
1819 2048 2063 2023 38
2046 2069 1967 2025 37
2195 2021 1885 2032 35
1877 2015 2093 2049 33
1934 2062 2188 2061 31
2231 2045 2149 2048 29
2026 2063 2065 2040 28
1836 2037 1979 2039 26
2145 2016 1964 2016 25
2119 2029 1986 2028 24
1876 2054 1993 2051 22
2110 2066 1995 2048 21
2192 2047 2003 2047 20
1910 2066 2024 2047 19
2010 2074 2023 2085 19
2256 2089 1914 2070 18
2029 2097 1767 2059 17
1963 2086 1806 2080 17
2225 2084 2157 2119 16
2097 2067 2370 2125 16
1907 2075 2413 2111 16
2176 2108 2239 2109 16
2178 2095 2191 2091 16
1910 2079 2211 2077 16
2093 2075 2077 2048 16
2251 2122 1809 2044 16
2015 2148 1635 2059 16
2061 2130 1755 2108 16
2267 2119 2303 2112 16
2022 2061 2549 2204 17
1910 2041 2209 2067 17
2197 2062 1831 2023 18
2116 2098 1587 2042 18
1911 2091 1873 2044 19
2190 2129 2420 2255 19
2200 2092 2550 2187 20
1905 2099 2303 2068 21
2018 2040 1999 1971 21
2257 2030 1990 2043 22
1915 2031 2236 2114 23
1973 2000 1966 2013 24
2166 1996 1373 1901 25
1979 2008 1730 1936 26
1848 2036 2192 2108 27
2181 2019 2268 2031 28
2107 2043 2097 2123 30
1765 2047 2473 2077 31
2071 2000 2804 2240 33
2165 2058 2090 2042 34
1869 2034 1405 1926 36
1991 2023 1325 1878 38
2239 1987 2131 2006 39
1949 2024 2428 2069 41
1963 2045 2383 2087 43
2288 2150 2040 2063 45
2041 2157 1872 2048 47
1882 2092 1815 1981 49
2195 2067 1815 1993 51
2130 2038 1846 2029 53
1906 2019 1214 1871 55
2119 2050 1534 1946 57
2189 2021 2467 2166 58
1883 2031 2981 2254 60
1967 2032 2514 2107 62
2210 2061 2163 2086 64
1963 2058 2220 2006 66
1889 2009 2310 2107 68
2238 2056 1810 2079 70
2120 2082 1817 1987 72
1923 2087 2047 2117 74
2149 2001 1482 1757 75
2099 2020 1619 1973 77
1755 2014 1952 2131 79
2024 2076 2000 2080 81
2163 1977 1640 1786 82
1844 1973 1795 1853 84
1868 1967 2987 2373 85
2171 2074 3018 2389 87
1987 2114 2216 2100 88
1913 2061 1426 1759 90
2228 2061 1630 1875 91
2078 2034 1881 2019 93
1869 2045 1980 2098 94
2211 2106 2123 2123 95
2191 2079 2183 2127 97
1856 2031 1948 1989 98
2069 2075 1867 1975 99
2258 2075 1990 2053 100
1943 2051 1999 2013 101
1991 2024 1980 2035 102
2245 2095 2017 2040 103
2055 2130 2079 2113 104
1932 2100 2044 2056 104
2239 2039 2056 2072 105
2001 1948 1936 1902 106
1926 2053 2155 2113 106
2267 2294 2216 2246 107
2199 2088 2085 2086 107
1915 2088 2066 2122 107
2068 2145 2115 2145 108
2240 2093 2063 2109 108
2037 2239 2196 2211 108
1992 2067 2042 2047 108
2246 2025 2049 2022 108
2161 2205 2231 2221 108
1833 2034 2037 2022 108
2180 2039 2050 2043 108
2083 1995 1989 1981 107
1725 1940 1916 1923 107
2050 1981 2030 2025 107
2129 1921 1917 1927 106
1878 2016 2036 2063 105
1969 2039 2010 2033 104
2298 2072 2093 2096 103
1998 2029 2051 2047 102
1949 1990 2040 2034 101
2217 2083 2003 2040 100
1955 2043 2009 2038 99
1893 2082 2037 2033 98
2143 2023 2012 2011 96
2163 2030 1989 2009 95
1861 2063 2006 2059 93
2055 2049 2082 2087 92
2257 2093 2180 2143 90
1881 2046 2080 2064 88
1993 2035 1979 2020 86
2209 2042 1998 2029 84
2028 2033 1938 1977 82
1903 2037 1936 1989 80
2196 2029 2207 2168 78
2161 2083 2251 2171 76
1873 2070 2140 2113 73
2037 2041 1794 1962 71
2081 2068 1872 2053 68
1797 2124 2271 2162 66
2074 2184 2432 2191 63
2277 2072 2245 2079 61
2051 2112 2063 2051 58
2072 2119 2011 2070 56
2383 2095 2086 2112 53
2146 2096 1997 2035 51
1990 2087 2011 2048 48
2199 2076 1989 2019 46
2055 2034 1950 2019 44
1765 1944 1782 1925 42
1990 1946 1747 1887 39
2086 1954 1808 1938 37
1853 2012 1945 2001 35
1963 1972 1943 1973 33
2171 1951 2079 1957 31
1915 2000 2133 1993 29
1972 2097 2247 2095 27
2270 2081 2105 2067 26
2137 2121 1986 2089 24
1938 2130 2077 2155 23
2225 2138 2314 2217 22
2149 2035 2337 2071 20
1958 2107 2278 2106 20
2105 2080 1938 2027 19
2254 2141 1818 2095 18
1961 2074 1626 2011 18
1992 2018 1864 2028 17
2139 1989 1986 1991 17
1943 2015 2159 2043 17
1906 2015 2138 2017 17
2203 2039 1883 1966 17
2020 2015 1749 2015 17
1905 2080 1931 2080 17
2158 2067 2036 2066 17
2167 2063 2355 2140 17
1845 2055 2495 2107 17
2010 2061 2111 2073 18
2269 2106 1814 2011 18
1950 2048 1648 1954 18
2054 2091 2059 2107 19
2200 2029 2109 2123 19
1921 2042 2513 2068 20
1871 1992 2502 2130 21
2184 2080 2320 2028 22
2130 2104 1700 2008 22
1982 2141 1435 2025 23
2212 2126 1789 2116 24
2329 2152 2394 2218 26
1893 2106 2472 2148 27
2105 2096 2161 2028 28
2175 2036 1857 2044 29
2002 2000 1656 2026 31
2031 2071 1696 1998 32
2245 2097 2117 2035 34
2051 2107 2419 2114 36
1929 2056 2459 2068 37
2204 2117 2033 2164 39
2165 2087 1899 2026 41
1827 2021 1800 2088 43
2027 1987 1907 1981 45
2163 1996 2096 2101 47
1813 1915 2335 1947 49
2055 1915 1613 1818 51
2169 1925 1279 1743 53
1831 1989 1917 1932 55
1789 1975 2968 2247 57
2167 2070 2568 2084 59
2060 2139 1446 1994 62
1972 2152 1295 1888 64
2202 2058 2093 2248 66
2065 2093 2440 2198 68
1830 2071 2272 2156 70
2097 2089 2144 2003 72
2215 2112 2166 2056 74
1837 1984 1531 1885 76
2053 2031 1798 2013 78
2224 2063 2351 2101 80
1937 2035 2560 2094 82
1958 2051 2061 1953 84
2280 2000 1661 1903 85
2269 2128 1794 2066 87
1881 2122 2129 2139 89
2045 2067 1993 2081 91
1990 2026 1677 1932 92
1742 1965 2104 2107 94
2130 2084 2463 2199 96
2329 2099 2183 2078 97
2021 2116 1686 1893 99
2003 2140 1628 1929 100
2355 2107 2355 2239 102
2029 2129 2569 2268 103
1890 2021 2138 2092 104
2227 1978 1865 1965 106
2114 2102 1854 1955 107
1795 2011 1856 1926 108
2140 2074 1958 1999 109
2082 1937 1875 1919 110
1891 2027 2030 2027 112
2223 2258 2233 2214 113
2212 2035 2021 2048 114
2008 2259 2184 2245 114
1821 1969 1944 1936 115
2181 1987 2046 2049 116
1799 1834 1819 1779 117
1923 2140 2129 2120 117
2107 2017 1951 1962 118
2196 2198 2165 2235 118
1891 2012 2040 2143 118
2156 2037 2040 2118 118
2144 2025 1938 2017 118
1937 2048 2071 2093 118
2023 2011 2035 2026 118
2296 2063 2121 2093 117
1974 2037 2085 1987 117
1970 2062 2063 2054 117
2227 2071 2076 2060 116
2035 2059 2056 2066 115
2011 2027 2011 2027 114
2134 2064 2043 2042 113
2079 2081 2014 2056 112
1680 2054 2073 2077 111
1713 2053 2088 2062 110
1920 2080 2110 2091 109
1723 2035 1857 1974 107
1979 2036 1879 1981 106
2317 2050 2164 2113 104
2104 2041 2181 2058 102
2127 2014 2055 2005 101
2389 2039 1955 2016 99
2154 2029 1966 1998 97
2035 2072 2101 2097 95
2249 2034 1887 2025 93
2226 2073 2040 2102 90
1886 2028 2213 2093 88
2099 2042 2185 2026 86
2282 2084 1922 2062 83
1929 2072 1686 1958 81
1954 2079 1985 2045 78
2269 2084 2285 2077 75
2056 2079 2320 2158 73
1915 2014 1957 2063 70
2178 2045 1901 2023 68
2169 2072 2221 2081 65
1875 2085 2315 2136 63
2187 2104 2282 2151 60
2242 2117 2031 2136 58
1926 2094 1976 2029 56
1986 2011 1970 1935 54
2242 2003 2051 2053 52
1926 2028 1841 1950 49
1855 2017 1896 1999 47
2185 2076 1937 2059 45
1933 2011 1902 1966 43
1910 2063 1888 2021 41
2237 2064 1871 2022 39
2205 2071 2116 2095 37
1974 2123 2257 2117 36
2151 2047 2234 2085 34
2223 2050 2111 2031 32
1820 2037 1779 1953 30
1919 2065 1811 2031 29
2055 2039 2312 2117 28
1887 2024 2554 2140 26
1851 2037 2438 2058 25
2231 2094 2074 2051 25
2143 2126 1873 2054 24
1951 2086 1806 2072 23
2256 2131 1752 2056 23
2129 2049 1585 1965 22
1839 2001 1605 1963 22
2095 2073 2119 2100 22
2153 2050 2228 2143 22
1926 2102 2424 2092 22
2003 2041 2350 2098 22
2256 2088 1940 2055 22
2015 2174 1977 2131 22
2034 2129 2279 2212 22
2232 1997 2546 2143 23
2023 2023 2237 1960 24
1891 2023 1714 1921 24
2141 2036 1805 2049 25
2292 2123 1894 2093 26
1879 2034 1842 2040 27
2101 2104 1918 2014 28
2124 2020 2000 1957 30
1961 2048 1922 2012 31
2028 2034 2027 2081 32
2191 2024 2178 2098 34
1951 2089 2635 2185 36
1973 2058 2802 2128 37
2191 2057 2442 1970 39
2196 2086 1967 2053 41
2030 2069 1753 2037 43
2214 2077 1750 2123 45
2315 2053 1835 2038 47
1800 1971 1963 1972 50
1808 1999 2069 1959 52
2036 2014 1386 1909 54
1682 2064 1679 1936 57
1893 1957 2018 2043 59
2171 2016 2485 2113 61
2029 1934 2254 2055 63
1894 2038 2153 2048 66
2245 2141 1735 1992 68
2260 2174 1583 2097 71
2048 2194 2072 2157 73
2139 2006 2468 2030 75
2535 2240 2970 2305 78
1715 2157 1808 1941 80
1782 2103 1302 1853 82
2017 2096 1582 1991 85
1867 2026 2816 2293 87
1986 2053 2391 2174 89
2335 2039 2124 2109 92
2120 2121 2059 2009 94
1882 2009 2041 2058 96
2128 2116 1973 2009 98
2234 1897 1731 1901 100
1863 2097 1608 1857 102
2133 1995 1812 1994 104
2239 1970 1840 1946 105
1918 2052 1839 1955 107
2020 2066 1901 1999 109
2292 2112 2047 2076 110
2042 2099 2063 2103 112
2002 2067 2083 2109 113
2321 2119 2118 2131 114
2089 2091 2016 2023 115
1869 2005 2031 2004 117
2118 2005 2049 1998 118
2074 1934 2008 2014 119
1931 2133 2115 2112 120
2118 2066 2032 2013 121
2430 2118 2079 2034 122
2124 1848 1888 1801 123
2153 2189 2175 2225 123
2128 2100 2067 2180 124
1872 2177 2132 2231 124
1673 2005 2001 2105 124
2065 1980 2027 2064 124
2014 2105 2019 2043 124
1743 2000 1964 2002 124
2112 2159 2253 2193 124
2131 2040 2159 2075 124
1900 2081 2191 2099 123
1927 1983 1961 1925 123
2185 2012 1977 1989 123
1917 2027 2033 2035 122
1957 2013 1996 2016 121
2232 1997 1967 1994 120
2016 2011 2003 2017 119
1764 2020 2007 2012 118
1940 2042 2013 2044 117
1907 2078 1994 2058 116
1621 2048 2063 2063 115
2078 2065 2095 2065 114
2203 2017 1967 1991 112
1949 2032 1897 2003 111
2097 2070 2127 2081 109
2358 2033 2025 2004 107
2067 2077 2172 2073 106
2015 2067 2221 2207 104
2359 2114 2219 2171 102
2179 2116 2200 2159 100
1942 2064 1952 2014 98
2287 2095 1975 2049 96
2132 2011 1995 2031 94
1932 1993 1836 1959 92
2114 2003 1599 1915 89
2193 2079 1905 2057 87
1979 2066 2143 2017 84
2001 2043 2253 2063 82
2307 2064 2253 2090 79
2015 2055 2093 2069 77
1877 2065 2123 2073 74
2251 2091 2119 2115 71
2109 2126 2003 2135 69
1895 2071 2094 2152 66
2184 2041 2209 2076 64
2143 2014 2220 2042 62
1861 2022 2120 1994 59
2079 2061 1955 1983 57
2217 2040 1880 1988 55
1899 2078 1972 2072 53
1969 2063 1931 2041 51
2269 2064 1915 2027 49
2068 2062 1939 2054 47
1881 2038 2055 2043 45
2223 2059 2112 2051 43
2011 1968 1983 1957 41
1951 2097 1877 2053 38
2247 2181 1987 2122 36
2337 2229 2281 2225 34
1980 2141 2374 2171 32
2033 2071 2419 2149 30
2098 2018 2185 2024 29
1831 1991 1883 1952 27
1965 2026 1637 1922 25
2136 1917 1552 1873 24
2119 1991 1829 2000 22
1926 1991 2048 2050 21
2193 2092 2233 2108 20
2087 2106 2013 2074 19
1742 2040 2015 1983 18
1910 2013 2071 1985 18
2027 2045 2110 2046 17
1800 2047 1850 2075 17
1984 2089 1966 2173 17
2170 2027 2121 2147 16
1817 1965 2198 2141 17
1949 2028 2409 2032 17
2281 2008 2040 1982 17
2163 2111 1891 2003 17
2032 2087 1749 1990 18
2183 2015 1849 2054 18
2192 2081 2184 2059 19
1907 2147 2348 2131 20
2215 2217 2160 2113 20
2217 2142 2011 2093 21
1973 1935 1949 2119 22
2007 2000 2258 2078 24
2301 2099 1998 2075 25
2015 2288 1188 2010 26
1850 2003 1814 2149 27
2194 1765 2350 2221 29
2025 1730 3356 2089 30
1846 2166 2827 1956 32
2123 2392 1913 1901 34
2137 2322 1585 1952 36
1913 2001 1974 2034 38
2127 1974 1664 2052 40
2295 2152 2275 2117 43
2175 2090 2162 2175 45
2047 1954 2150 2083 47
2214 2065 1948 2033 50
1857 2066 1604 1931 52
1672 2057 2125 2040 55
2103 1993 1808 2045 57
2090 2045 1724 2046 60
1845 2095 1659 1997 62
2021 2070 2256 2004 65
2183 2037 1880 2025 67
2034 2042 2120 2138 70
1968 2019 2144 2097 72
2009 2000 2482 1968 74
1875 2111 2585 2070 77
1900 2127 2377 2095 79
2284 2105 2368 2304 81
2129 2072 2141 2166 84
1841 1991 1556 1821 86
2198 2056 1508 1862 88
2206 2096 1954 2073 91
1915 2055 1959 2071 93
2112 2070 1823 1956 95
2211 2073 1871 1960 97
1891 1992 1973 2011 99
2075 2014 2123 2131 101
2270 2073 2139 2121 102
2008 2126 1919 1971 104
2156 2229 2047 2144 106
2299 2040 2033 2086 107
2180 2087 2009 2059 109
1762 1812 1776 1837 110
2130 2046 1981 1978 112
2173 2041 2102 2087 113
2230 2335 2285 2290 114
2183 2134 2123 2125 116
2207 2114 2086 2063 117
1713 1813 1875 1843 118
1797 1850 1814 1758 119
2184 1901 1905 1791 120
2300 2176 2161 2161 121
1870 2029 2008 2130 122
2121 2109 2134 2275 123
1957 2157 2090 2158 123
1604 2048 2012 2016 123
1919 1966 1986 2020 124
2080 2015 1983 2093 124
1736 1950 1905 1970 124
1945 2045 2038 2069 124
2186 2058 2140 2100 123
1913 1999 2123 2035 123
1852 1979 2033 1964 123
2123 1967 1920 1927 122
1914 1933 1963 1931 122
1945 2031 2063 2026 121
2248 2086 2081 2091 120
2237 2135 2107 2127 119
1930 2027 2011 2027 118
2086 2055 2054 2054 117
1896 2074 2058 2069 116
1531 2034 2008 2040 114
1868 2129 2106 2108 113
2211 2112 2096 2099 111
2106 2131 2107 2123 110
2112 2032 2007 2021 108
2362 2015 1975 2009 106
2128 2022 1859 1976 104
2016 2080 1916 2020 102
2422 2166 2076 2112 100
2206 2139 2335 2216 98
1893 2089 2327 2186 96
2109 1995 1998 1968 93
2254 2062 2018 2082 91
1844 2002 2084 2022 88
2037 2024 2236 2104 86
2310 2038 2207 2095 83
2084 2126 1916 2035 81
2032 2093 1873 2036 78
2358 2107 2001 2083 75
2094 2085 2097 2061 73
1832 2019 1750 1919 70
2175 2037 1922 2012 67
2144 2092 2334 2134 65
1952 2095 2470 2127 62
2140 2073 2177 2078 60
2261 2043 1795 1972 57
1868 2023 1867 2009 55
1917 2033 2094 2042 52
2333 2087 2064 2067 50
1921 1978 1703 1926 48
1892 2083 1954 2070 45
2264 2097 2221 2103 43
2085 2113 2304 2129 40
1934 2128 2275 2120 38
2278 2084 1854 2040 36
2199 2056 1809 2011 34
1768 1996 1764 1957 31
2015 2024 1702 1979 29
2138 2023 1890 2031 28
1898 2099 2272 2142 26
2032 2089 2549 2138 24
2271 2075 2384 2043 23
2015 2084 2024 2026 21
1983 2072 1821 2061 20
2166 2075 1955 2130 19
2044 2048 2094 2112 18
1841 2105 2049 2106 17
2068 2091 2115 2068 17
2114 2058 2166 2076 17
1839 2006 2369 2007 16
1911 1966 2299 1991 16
2165 2003 1790 1927 16
1887 2015 1437 1932 16
1843 2043 1245 1937 17
2231 1983 1786 1997 17
1975 2006 2302 2133 17
1920 2104 2103 2138 18
2252 2146 1994 2103 19
2216 2098 1810 2028 20
1991 2071 2201 2056 21
2140 2059 2239 2077 22
2215 2110 2208 2148 23
2023 2130 2936 2265 24
2021 2152 2738 2234 26
2238 1989 2499 2105 27
2134 2026 2087 2047 29
1880 1978 1677 1929 30
2181 2120 1624 1887 32
2009 2205 1078 2082 34
2031 2289 1730 2100 36
2157 2146 2109 2178 38
2290 2015 2321 2047 41
1889 1916 2068 1950 43
1998 1809 2271 2006 45
2066 1874 2670 2107 48
1965 1991 2279 1931 50
2160 2129 1691 2077 53
2214 2136 1629 2009 55
1977 2093 2055 2135 58
1901 2024 2656 2161 60
2084 2094 1522 1946 63
2038 2074 1366 1777 65
1902 2017 1497 1887 68
2093 2052 2150 2177 70
2040 2036 2506 2150 73
1784 2012 1979 1930 75
2176 1983 1919 1843 78
2147 2047 2351 2095 80
2179 2119 2702 2388 83
2059 2199 2600 2262 85
2229 2166 2270 2118 87
1992 2158 1870 2057 89
1744 2163 2043 2155 92
1916 2025 1918 2024 94
1963 2072 1626 1879 96
1864 1971 1593 1874 98
2032 2000 2023 2054 100
2118 1882 2227 2117 102
1897 2069 1859 1938 104
2024 1907 1673 1853 105
2155 1958 1832 1927 107
1935 1997 1886 1925 109
1943 1981 1883 1963 110
2319 2119 2015 2046 112
2203 2163 2143 2143 113
1924 1973 1951 1941 114
2320 2076 2078 2072 115
2264 2144 2175 2149 117
2008 2128 2129 2137 118
2219 2148 2125 2156 119
2101 1917 1891 1880 120
1942 2102 2125 2145 121
2118 2192 2193 2220 122
2244 2169 2177 2201 122
2083 2224 2215 2217 123
2261 2364 2387 2396 123
2263 2170 2162 2182 123
2100 2032 2048 2056 123
1766 1769 1797 1792 123
1928 1889 1867 1848 123
1937 1891 1893 1907 123
1701 1847 1853 1840 123
1922 1932 1955 1965 123
2113 1995 2014 2011 122
1956 2084 2106 2083 122
1935 1997 2000 1992 121
2239 2063 2016 2042 120
1780 2075 2122 2093 119
1690 2034 2090 2010 118
2076 2042 2066 2080 117
1941 2073 2050 2078 116
1796 2088 2057 2124 115
2337 2090 2077 2108 114
2291 2073 2032 2053 112
1959 2033 1921 2010 111
2129 2040 2019 2051 109
2270 2105 2139 2110 108
1954 2101 2099 2085 106
1968 2085 2065 2079 104
2303 2092 2061 2078 102
2029 2054 2164 2103 100
1858 2037 2119 2041 98
2271 2050 2091 2066 96
2113 2033 2013 2022 94
1833 2031 2024 2029 91
2217 2059 1998 2039 89
2197 2055 1720 1985 86
1890 2022 1692 1981 84
2019 2037 1930 1993 81
2299 2097 2361 2115 78
1969 2104 2515 2169 75
1985 2047 2274 2115 73
2341 2107 2107 2144 70
2087 2095 2021 2127 67
1822 2043 1729 1954 64
2178 2043 1931 2053 61
2172 2089 2329 2137 58
1913 2091 2436 2159 56
2135 2046 2117 2038 53
2255 2020 1775 1939 51
1910 2087 2007 2021 49
2015 2092 2203 2111 46
2283 2078 2062 2051 44
1961 2011 1848 1949 42
1941 2032 1879 1983 40
2233 2000 1844 1965 38
2143 2123 1889 2042 36
1915 2126 1915 2076 34
2253 2171 2027 2170 32
2199 2156 2031 2154 30
1928 2125 2075 2086 29
2111 2061 2202 2075 27
2214 2017 2346 2059 26
1818 2015 2103 1981 24
1842 2027 1879 1977 23
2151 2032 1890 2050 22
1845 2024 2324 2102 21
1785 2025 2491 2126 20
2151 2043 2252 2055 20
2057 2030 1832 1983 20
1847 2034 1659 1948 20
2126 2011 1632 1942 20
2145 1991 1824 2001 20
1896 2019 2095 2067 20
2052 2026 2023 2019 20
2299 2134 2099 2150 20
2011 2131 2191 2165 21
2008 2165 2218 2198 21
2220 2110 1965 1968 22
2035 2075 1759 1974 23
1928 2001 2011 2050 23
2165 2031 2364 2138 25
2157 2054 2513 2162 26
1924 2093 2045 2047 27
2126 2114 1891 2101 28
2196 2082 1963 2127 29
1966 2104 2125 2164 31
1967 2079 2406 2025 32
2206 1973 2277 2014 34
1935 2008 1681 1898 36
1927 2027 2022 1988 37
2228 2043 2237 2166 39
2066 1999 1905 2011 41
2110 2190 1770 2111 43
2406 2185 2179 2188 45
2440 2033 2572 2145 47
1986 2024 2347 2087 50
1987 1981 1510 1963 52
1987 2019 1680 1969 54
1671 1991 2288 2068 57
1799 2085 2246 1951 59
2083 2095 2185 1960 61
1883 2003 1821 1855 64
1855 1864 1551 1890 66
2263 2020 1356 2036 69
2195 2264 2323 2265 71
2009 2204 3195 2397 74
2419 2128 2732 2127 76
2212 2101 1829 1939 78
1871 2026 1522 1899 81
1731 2179 1893 2064 83
1973 2155 1787 1988 86
1708 2039 1654 1902 88
2019 1987 1983 1979 90
2184 1909 2301 2069 92
2002 1976 1433 1824 95
1860 2010 1272 1823 97
2328 1963 2472 2287 99
2270 2188 3107 2481 101
2027 2154 2797 2314 103
2205 2204 1737 1873 104
2184 2013 1588 1885 106
1880 1982 2060 2037 108
2023 2010 1983 2011 110
2180 1851 1680 1862 111
1939 2022 1849 1951 113
1917 2084 1921 1999 114
2315 2160 2038 2093 116
2080 1987 2044 2029 117
1948 1994 2145 2101 118
2166 2100 2013 2010 120
2183 2150 2075 2075 121
1828 1939 1993 1983 122
1897 1830 1896 1835 123
2084 1933 1931 1817 124
1920 2176 2132 2101 125
2175 2226 2226 2325 125
2296 2142 2096 2260 126
2109 2081 2081 2236 126
1909 2105 2027 2064 126
2257 2061 2085 2107 126
2015 2089 2012 2070 126
1786 1934 2035 2006 126
2136 2013 2031 1987 126
2112 2007 2059 2022 125
1922 2126 2192 2113 125
2122 2048 2088 2050 124
2239 2073 2119 2105 124
2016 2107 2075 2077 123
2059 2065 2033 2035 122
2228 2029 2040 2033 121
1827 2025 2012 2019 120
1541 1997 1961 2000 119
1878 2017 1999 2031 117
1752 2011 2005 2004 116
1686 1997 1967 1970 115
2145 2034 1944 2005 113
2234 2031 1918 2015 111
1980 2062 1989 1995 110
2159 2039 2173 2072 108
2357 2067 2264 2133 106
2061 2079 2131 2102 104
2040 2044 2026 2059 102
2364 2095 2036 2062 100
2027 2078 2002 2031 98
2038 2112 2022 2064 96
2287 2121 2139 2164 93
2198 2066 2063 2072 91
1870 2013 2064 2037 89
2208 2075 1910 2019 86
2241 2061 1573 1927 83
1848 2034 1888 2005 81
2037 2059 2147 2085 78
2260 2071 2469 2193 75
1989 2108 2485 2207 72
1917 2019 2248 2059 69
2318 2129 2145 2108 67
2013 2063 1871 2015 64
1856 2079 1950 2070 61
2184 1982 2023 1986 58
2112 2033 2172 2039 56
1853 2045 1976 2024 53
2024 1955 1647 1861 51
2165 2040 1874 1976 48
1831 2027 1997 1997 46
2079 2088 2014 2078 44
2295 2046 1874 2029 41
1957 2053 1985 2052 39
1969 2087 2067 2093 37
2241 2087 2257 2119 35
2120 2075 2170 2066 32
1883 2053 1886 1994 30
2140 2095 2010 2077 28
2145 2141 2161 2138 27
1913 2092 2090 2074 25
2139 2054 2108 2096 23
2277 2071 2225 2089 22
1967 2065 2469 2207 21
2151 2149 2510 2227 20
2290 2113 1926 2074 19
1905 2119 1609 1993 18
1824 2058 1779 2037 18
2092 2017 2196 2099 18
2037 2046 2332 2081 18
1854 2060 2025 2035 18
2119 2059 1791 2016 18
2077 2017 1659 1918 18
1863 1997 1768 1932 18
2057 2035 1955 2020 19
2197 2021 2281 2107 19
1911 2055 2440 2115 20
1953 2029 2293 2056 20
2191 2064 1825 2031 21
2019 2095 1670 2035 22
1873 2047 2078 2073 23
2170 2089 2304 2115 25
2192 2108 2329 2141 26
1874 2099 1939 1968 27
2161 1993 1990 2043 28
2189 1971 1905 1897 30
1885 2075 2000 2179 31
2105 2023 2094 2095 32
2288 2050 2321 2064 34
1984 2109 2693 2115 36
2041 2118 2511 2118 38
2185 2045 2036 2097 39
2182 2000 1415 1971 41
1895 2037 1449 1911 44
2120 2109 1840 2019 46
2034 2051 1961 2061 48
1803 2040 1565 2072 50
2069 2077 2541 2183 53
2171 2064 3208 2317 55
1901 2052 3196 2185 57
1990 2140 2145 2062 60
2284 2234 974 1808 62
2042 2157 1361 1953 65
2032 2069 2026 2057 67
2275 2147 1653 2059 70
2260 2100 2006 2115 72
1719 2027 2224 2027 74
1885 1872 2289 1964 76
1973 1961 1907 1942 79
1723 1957 1740 1933 81
2074 2133 2086 2131 83
2258 1998 2297 2117 85
1883 1973 1753 1899 87
2066 2177 1896 2037 89
2271 2013 2442 2247 91
2061 2148 2514 2213 92
1944 1984 1874 1972 94
2279 2146 1569 1863 96
2200 2100 1979 2077 98
1999 2095 2174 2144 99
2155 2000 1995 2044 101
2123 2047 1834 1936 102
1904 2001 1883 1956 104
2051 2035 1939 2009 105
2163 1955 1909 1965 106
1920 1917 1941 1977 108
2117 2154 2116 2138 109
2435 2268 2283 2293 110
2136 2239 2124 2157 111
2035 2120 2122 2095 112
1955 1765 1832 1731 113
2020 1978 1999 1963 114
1893 2214 2176 2208 115
2119 2127 2106 2125 116
1910 1775 1737 1783 117
1754 1859 1920 1943 118
2141 2179 2211 2256 118
2221 2096 2077 2052 119
2068 2065 2087 2025 119
1929 1871 1888 1931 119
2113 1990 1946 2021 119
2170 2192 2154 2242 119
1909 2066 2077 2037 119
2113 2133 2161 2135 119
1975 2038 2060 2065 119
1692 2006 1994 1985 119
1985 1995 1935 1953 118
2061 2076 2125 2113 118
1841 2055 2113 2066 117
1981 2089 2143 2097 116
2181 2025 2015 2011 115
1807 1943 1903 1944 114
1776 1970 1967 1993 113
2149 2015 1986 2014 112
2000 2013 1965 2002 111
1824 2006 1917 1964 110
2183 2044 2009 2031 108
2217 2060 2115 2104 107
1854 2007 2092 2059 105
2127 2033 1934 2012 104
2263 2014 1603 1869 102
1927 2080 2155 2139 100
2022 2071 2381 2180 98
2393 2203 2550 2283 97
2033 2100 2112 2055 94
1971 2064 1881 1988 92
2351 2119 2096 2106 90
2149 2093 2067 2072 88
2003 2126 1880 2069 86
2263 2050 1597 1993 84
2181 2042 1863 1993 81
1833 2023 2157 2023 79
2002 2032 2529 2104 77
2311 2061 2471 2221 74
2007 2130 2058 2105 72
2038 2109 1754 1987 70
2237 2075 1870 2004 67
1971 2034 2071 2047 65
1847 2050 2329 2170 62
2333 2055 2181 2083 60
2071 1982 1692 1931 58
1869 2043 1575 1938 56
2109 2050 1807 1977 53
2195 2086 2053 2075 51
1871 2047 2405 2069 49
1998 1979 2224 1991 47
2220 2057 2043 1994 45
1987 2129 2005 2124 43
2022 2154 2122 2172 41
2306 2103 2376 2158 39
2147 2134 2356 2170 37
1960 2221 2180 2132 35
2182 2120 1960 2079 34
2125 2048 1808 1964 32
1824 1955 1893 1946 30
2065 1970 1866 1980 29
2174 1980 1819 1974 27
1887 1997 1753 1975 26
1954 2061 1940 2095 24
2125 2063 2090 2065 23
1907 1975 2144 2017 22
1919 1979 2091 1979 20
2280 2085 2059 2060 19
2110 2085 1861 2067 18
1971 2085 1889 2088 17
2199 2049 2024 2043 17
2079 2041 2187 2029 16
1781 2041 2259 2053 16
1957 2033 2275 2095 15
2063 2077 2317 2102 15
1839 2048 2190 2083 15
1990 2103 1936 2034 15
2224 2037 1495 1957 15
2019 2062 1629 1971 15
1930 2026 2308 2163 16
2210 2005 2423 2071 16
2154 2060 2186 2041 17
1956 2030 1593 1936 17
2142 2065 1794 2089 18
2176 2099 2213 2178 19
1860 2095 2354 2118 20
2043 2122 2039 2117 21
2251 2100 2120 2069 22
1987 2063 2262 2142 23
2023 2059 2064 2028 24
2292 2097 1874 2032 26
2164 2162 2595 2212 27
2008 2113 2408 2111 29
2306 2088 2069 2011 30
1999 2000 1536 1897 32
1743 1981 2001 2077 34
2087 2114 2359 2151 36
2150 2146 1936 2041 38
1923 2098 1657 1914 40
1981 1982 2006 2053 42
2100 1929 2533 2112 44
1915 1965 1968 1990 47
1887 2011 1475 1895 49
2290 2168 1821 2017 51
2067 2099 2279 2103 54
1878 1963 2373 1950 56
2125 2032 2069 2017 58
2015 1982 1684 1908 61
1868 2138 1313 2022 63
2132 2097 1966 2090 66
2324 2117 2646 2318 68
1924 2114 2977 2255 70
2044 2086 2259 2104 73
2286 2092 1857 2026 75
2033 2034 1574 1999 77
1945 2016 1724 2123 79
2161 1969 2057 2030 82
2047 2111 2285 2093 84
1844 2082 2257 2019 86
2161 2067 2121 1969 88
2155 2059 1953 2005 90
1843 1995 2037 2034 92
2051 1950 2036 2049 94
2253 2097 2037 2107 96
1930 1970 1985 1977 98
2045 2088 2003 2010 100
2246 2067 1677 1897 102
2014 2003 1857 2013 103
1891 2017 1993 2018 105
2200 2042 1938 1999 107
2052 1942 1811 1920 108
1964 2077 2008 2033 109
2150 1910 2013 1943 111
2182 2031 2003 1933 112
1976 2173 2087 2144 113
2202 2267 2170 2245 114
2218 2013 2041 2056 115
1932 1991 2046 2012 117
1941 2131 2093 2053 117
2422 2309 2312 2368 118
1961 2029 2022 2177 119
2071 2177 2143 2207 119
2265 2106 2085 2131 119
2083 2085 2097 2126 120
1747 2034 1909 2013 120
1908 1974 1967 2003 120
2006 2017 2077 2017 119
1809 2053 2239 2056 119
1921 2067 2184 2053 119
2130 2035 2069 2015 118
1811 1997 1993 2015 118
1622 1949 1955 1946 117
2107 2033 1991 2000 116
1878 2069 2047 2076 115
1793 2069 2047 2057 114
2194 2071 2045 2103 113
2116 2017 1984 2018 112
1851 2007 1995 2022 110
2088 1990 1989 2003 109
2269 2031 1951 2008 107
1925 2003 1916 1992 106
2108 2044 2096 2095 104
2367 2087 1961 2039 103
2094 2036 2011 2040 101
2042 2069 2223 2125 99
2296 2051 2264 2093 97
2116 2051 2233 2085 95
1970 2066 1955 1997 93
2234 2068 1872 2023 91
2217 2067 2119 2107 89
1919 2070 2128 2105 86
2103 2061 1964 2027 84
2265 2096 2002 2053 82
1957 2107 1994 2043 80
2016 2053 1807 1988 77
2240 2033 1906 2046 75
1977 2067 2229 2095 72
1892 2038 2478 2120 70
2190 2075 2266 2097 67
2059 2036 1876 1993 65
1854 1992 1940 2027 62
2126 2028 2126 2027 60
2168 2036 2097 2070 58
1925 2081 1911 2028 55
2071 2086 1893 2032 53
2221 2063 1965 2047 50
1937 2055 1997 2037 48
1967 2058 1887 2037 46
2228 2066 1942 2039 43
2017 2060 1863 2019 41
1881 2011 2113 2041 38
2160 2036 2180 2062 36
2081 2064 2071 2021 34
1802 2039 1887 1965 32
2058 2016 1903 2025 30
2182 2114 2327 2075 28
1991 2101 2588 2238 26
2145 2126 2463 2147 25
2299 2085 2097 2073 24
2096 2101 1980 2046 22
1960 2074 1931 2090 21
2304 2073 1695 2049 20
2163 2077 1691 2043 20
1840 2057 1941 2085 19
2173 2081 2213 2144 18
2077 2068 2263 2159 18
1820 2075 2050 2013 17
2067 2024 1900 2059 17
2146 1985 2399 2035 17
1952 2041 2325 2083 17
2075 2111 2042 2035 17
2301 2133 1864 2025 17
2030 2050 1995 2050 17
1876 1952 2243 2036 17
2141 2030 2009 2047 18
1963 2085 1422 2076 19
1797 2083 1914 2067 19
2013 2024 2435 2116 20
2072 2068 2563 2027 21
1832 2085 2028 2015 23
2120 2114 1568 1948 24
2155 2014 1819 2057 25
1896 1991 1971 2038 27
1974 1999 2496 2094 28
2217 2135 2353 2110 30
2052 2178 1769 1970 32
2068 2147 1417 2071 33
2238 2102 2221 2185 35
2198 2052 2831 2335 37
1957 2074 2250 1989 39
2128 2053 1515 1905 41
2153 2051 1808 2047 43
1852 2016 2697 2167 45
2065 2017 2501 2044 47
2200 2040 1582 1831 49
1962 2074 1403 1951 51
1944 2027 2153 2177 54
2190 2026 2003 2045 56
2018 2029 1405 1877 58
1928 2020 1660 1927 60
2079 2022 2337 2104 62
2054 2065 2643 2131 64
1765 1969 2015 1981 66
2004 2043 1562 1907 68
2270 2082 1793 2014 70
1911 2045 2253 2120 72
2077 2085 2711 2306 74
2249 2057 2285 2080 75
2047 2128 1860 2071 77
2000 2113 1493 1954 79
2251 2076 2047 2077 81
2170 2062 1868 1986 82
2031 2152 2145 2151 84
2293 2226 2675 2342 85
2188 2163 2713 2281 87
1794 2046 2261 2024 88
1954 1902 1463 1742 90
2277 2118 1781 2008 91
1968 2120 2154 2174 93
1971 2020 1859 1960 94
2100 1843 1503 1730 95
1885 1927 1533 1786 97
1878 2006 2041 2101 98
2287 2147 2328 2165 99
2062 1976 2280 2115 100
1807 1944 2087 1971 101
2178 2107 1946 2027 102
2277 2153 2078 2077 103
1775 1996 1943 1876 104
2106 2012 1992 1937 105
2179 2051 2005 2067 106
1917 2041 2065 2115 107
2144 2289 2236 2304 107
2282 2141 2083 2152 108
2120 2164 2090 2099 108
1914 2067 2059 2028 109
2181 2081 2128 2203 109
1984 1985 1969 2074 109
1830 2007 1912 2099 109
2066 1980 2005 2050 109
2110 2015 2043 1979 109
1819 2006 2072 1991 109
2016 2028 2074 2008 109
2195 2090 2088 2053 108
1958 2109 2134 2100 108
1943 2105 2125 2108 107
2347 2167 2164 2172 106
2107 2117 2128 2121 105
1916 2018 1960 2023 104
2278 2115 2067 2123 103
2094 2110 2144 2123 102
1839 2072 2128 2088 101
2066 2025 2024 2017 100
2170 1985 1925 1961 98
1754 1967 1840 1933 97
1932 1964 2014 2001 95
2201 1975 1833 1978 94
1884 1970 1981 2000 92
1896 1985 2101 2011 90
2237 2025 2176 2043 88
2025 2024 2050 2032 86
1889 2067 1941 2038 84
2247 2097 2091 2078 82
2175 2077 2078 2076 80
1905 2077 2066 2067 77
2128 2043 1951 2061 75
2232 2077 1870 2020 73
1912 2046 2040 2081 70
2036 2085 2265 2091 68
2271 2081 2354 2145 65
2080 2116 2114 2105 63
1927 2083 1665 1971 60
2245 2071 1760 1999 58
2076 2077 2041 2066 55
1817 2038 2312 2083 53
2132 2035 2215 2057 50
2176 2072 2231 2055 48
1935 2102 2212 2092 46
2112 2071 2099 1988 43
2313 2128 2212 2129 41
1860 1983 1855 1919 39
1941 2034 1869 2029 37
2213 2015 1759 1977 35
1905 2075 1695 2032 33
1992 2178 1827 2074 32
2237 2011 1879 2047 30
2035 2012 2164 1991 29
1909 2107 2174 2119 27
2113 2056 1846 1985 26
2167 2068 1808 2079 25
1952 1983 2069 2106 23
2135 1981 2526 2198 22
2209 2015 2428 2084 21
1960 2097 2700 2089 21
1978 2054 2489 2023 20
2253 2063 2088 2010 20
2129 2137 1768 2021 20
1892 2113 1734 2047 20
2119 2131 2085 2168 20
2063 2055 1978 2079 20
1792 2098 1660 2031 20
2084 2065 1606 1991 20
2175 2052 1813 2067 20
1914 2029 2331 2088 21
2075 2059 2481 2124 21
2239 2142 2259 2022 22
2035 2191 1539 1975 23
2051 2116 1805 2177 23
2283 1931 2289 2091 24
1950 1865 2654 2064 25
1803 2007 2452 2032 26
2061 2129 2066 1996 27
2066 2193 1481 2024 29
1938 2127 1746 2107 30
2057 2024 2012 2068 31
2121 2034 2716 2159 33
1939 2017 2640 2066 35
1966 2138 1535 1898 36
2212 2106 1855 2015 38
1999 1973 2271 2117 40
1941 1905 2795 2219 42
2245 2097 2019 2025 44
2165 2189 1103 1881 46
1876 2176 1076 1971 48
2229 2068 2347 2225 50
2167 2014 2426 2145 52
1881 2032 1784 1922 54
2085 2013 1473 1863 57
2055 1946 2035 2079 59
1769 1919 2923 2087 61
1916 2048 2862 2160 63
2211 2115 2281 1953 65
2043 2175 2031 2126 67
2007 2075 2105 2113 69
2251 2076 1817 2039 71
2128 2118 1430 1974 73
1952 2046 1545 2043 75
2131 1996 2156 2045 77
2157 2031 2047 1987 79
1862 2056 1910 1914 81
2026 2035 1884 1955 83
2208 2052 2533 2173 85
1991 2096 2391 2179 86
1988 2144 1511 1963 88
2210 1996 1612 1926 90
2023 2001 2501 2263 91
1887 2062 2694 2223 93
2165 2083 2385 2131 94
2099 1981 1707 1869 96
1924 2034 1694 1940 97
2094 2009 1858 1983 99
2195 2064 1856 1999 100
1949 2066 1868 2015 102
2090 2053 1987 2048 103
2249 2061 2083 2128 104
1984 2109 2001 1991 105
1945 1996 1989 1934 106
2277 2106 2174 2133 107
2014 2005 1953 1973 108
1841 2016 2023 2090 109
2258 2191 2137 2205 110
2128 2129 2148 2179 110
1974 2143 2145 2143 111
2103 2143 2050 2053 112
2208 2105 2103 2119 112
1877 2066 2077 2115 112
1985 2042 2054 2096 112
2167 2004 2030 2017 113
1918 2018 2030 2036 113
1840 1952 1961 1956 112
2095 1909 1887 1890 112
1999 1997 1983 2000 112
1869 2057 1960 2057 112
2108 2011 2101 2050 111
2110 2040 2175 2033 111
1803 2026 2149 2027 110
2017 1999 2027 1986 110
2213 2046 1983 2027 109
1892 2029 2025 2048 108
1942 2066 2063 2080 107
2267 2123 2083 2139 106
1898 2047 2005 2057 105
1906 2065 2056 2073 103
2254 2105 2092 2111 102
2133 2088 2021 2073 100
1900 2070 2028 2085 99
2162 2060 2007 2067 97
2163 2034 1926 1999 96
1871 2008 1783 1949 94
2057 2064 2117 2066 92
2332 2105 2441 2190 90
1972 2073 2447 2190 88
2066 2091 2090 2074 86
2256 1990 1583 1868 84
1948 2103 1995 2080 81
1982 2056 2269 2118 79
2263 2104 2272 2138 77
2217 2055 2081 2083 75
1843 2020 1853 1962 72
2082 2030 1651 1947 70
2157 2084 1729 1996 68
1887 2021 1873 1999 65
2021 2061 2358 2123 63
2310 2102 2557 2170 61
1899 2028 2285 2102 58
1977 2105 2015 2090 56
2228 2076 1913 2031 54
1997 1973 1945 1948 52
1879 2019 2122 2039 49
2231 2022 2109 2052 47
2250 2176 2110 2148 45
1777 2044 1919 1978 43
2107 2003 1949 1965 41
2188 2023 1941 2015 39
1919 2129 2015 2152 37
2088 2155 1990 2091 35
2350 2094 2136 2115 33
2006 2126 2232 2112 31
1949 2110 2071 2083 29
2231 2025 1968 2024 27
2070 2035 1959 2025 25
1856 2058 1975 2063 24
2207 2055 2062 2087 22
2280 2098 2130 2095 21
1889 2057 2059 2065 19
2074 2040 2100 2058 18
2195 2055 2071 2041 17
1949 2101 2123 2087 16
2067 2120 2103 2086 15
2214 2075 1952 2032 14
1946 2069 1907 2057 13
1768 2057 1979 2059 12
2038 2027 2138 2090 12
1993 2011 2165 2132 12
1827 2027 1774 2001 11
2055 2009 1614 2006 11
2173 1997 1815 2006 11
1924 2021 2178 2067 12
2074 2058 2279 2045 12
2183 2054 2135 2081 12
1940 2002 2378 2091 12
1926 2027 2264 2003 13
2179 2002 2168 2037 13
2046 2100 2360 2052 14
1943 2113 2498 2143 15
2296 2155 1922 2108 16
2294 2165 1633 2071 17
2002 2155 1656 2113 19
2187 2058 2438 2168 20
2234 2074 2139 2142 22
1943 2029 1848 2013 23
2032 2096 1614 1959 25
2189 2024 1981 1984 26
1984 2072 2045 2068 28
1975 2042 2061 2069 30
2251 2072 2509 2173 32
1981 2027 2452 1987 34
