-140 -6 -13 -12 0
76 1 -31 -51 0
91 14 17 31 0
-127 16 8 40 0
15 3 -13 31 0
124 1 -45 -23 0
-90 12 9 3 0
-61 8 -10 3 0
149 12 -5 26 0
-15 13 -11 -12 0
-122 -3 -1 -6 0
122 13 7 13 0
61 24 24 47 0
-156 -5 -35 -20 0
86 38 27 41 0
101 -7 -19 -15 0
-123 17 51 19 0
-20 -2 -49 -73 0
161 16 -23 -14 0
-81 11 -19 10 0
-83 2 -21 -45 0
139 -2 30 50 0
-5 18 -8 39 0
-138 7 -17 15 0
120 13 -22 -1 0
67 9 95 75 0
-148 5 -31 -42 0
39 10 5 40 0
134 13 -28 9 0
-112 3 9 -43 0
-33 3 5 6 0
142 -3 -40 -55 0
-55 11 -4 34 0
-101 2 -42 -5 0
154 15 19 26 0
19 22 20 41 0
-133 24 -25 -15 0
105 14 13 -2 0
89 27 33 56 0
-143 6 -13 -41 0
38 12 29 59 0
137 4 1 15 0
-105 0 -23 0 0
-35 13 -27 -77 0
171 16 -28 50 0
-54 11 6 37 0
-108 5 18 29 0
135 14 -11 0 0
31 15 2 -4 0
-142 6 -31 18 0
77 -5 -11 -15 0
110 9 13 1 0
-133 13 -5 -16 0
15 10 10 27 0
134 -2 -19 -15 0
-97 7 -12 -29 0
-52 28 -23 1 0
146 10 -26 -38 0
-28 6 -40 -53 0
-114 8 -15 30 0
118 1 13 67 0
50 17 14 64 0
-129 11 10 -30 0
65 10 -20 -12 0
105 3 -1 27 0
-126 11 -8 31 0
6 19 -21 -34 0
148 17 35 20 0
-81 16 -32 -19 0
-77 11 19 34 0
114 -17 -17 -5 0
-6 8 3 -8 0
-125 6 -16 -24 0
104 7 -23 -11 0
65 7 -11 35 0
-137 11 -18 19 0
19 -12 -9 -4 0
143 17 -15 -28 0
-117 14 -22 -43 0
-37 5 12 31 0
140 -13 -66 -41 0
-67 5 -4 27 0
-101 7 -24 -32 0
157 13 2 34 0
1 5 3 6 0
-147 -2 -11 15 0
95 8 -25 -25 0
81 9 6 -13 0
-163 -15 -10 8 0
19 -1 -35 -20 0
132 6 -5 1 0
-115 3 -3 9 0
-64 -17 -28 -47 0
164 23 63 42 0
-53 4 -22 -14 0
-113 8 -6 3 0
131 -5 -49 -57 0
24 11 -12 2 0
-151 5 0 32 0
89 13 -2 7 0
87 -7 -4 -3 0
-143 1 -33 -29 0
15 10 -14 19 0
144 6 -1 -2 0
-102 -5 -16 -32 0
-52 -1 13 5 0
131 -13 -8 9 0
-6 30 11 47 0
-123 11 3 25 0
130 14 -15 -19 0
59 20 30 15 0
-135 23 -9 8 0
70 24 4 24 0
125 21 3 9 0
-142 -16 -33 -47 0
-49 -33 -28 1 0
116 -27 -67 -56 0
-120 -18 -26 -28 0
-71 14 -13 -1 0
153 13 15 4 0
19 40 41 80 0
-93 40 51 96 0
143 40 39 56 0
99 51 16 24 0
-109 33 57 34 0
77 48 41 63 0
108 17 -17 31 0
-95 17 -9 18 0
-40 1 -14 -22 0
149 15 2 -7 0
-71 5 5 25 0
-89 8 -1 38 0
123 -13 -34 -15 0
9 13 21 25 0
-128 -5 -4 -54 0
74 -10 -2 -52 0
93 7 -13 52 0
-135 16 0 16 0
28 3 -9 24 0
137 -1 -21 -19 0
-114 -1 1 1 0
-54 1 -25 -6 0
147 -3 -38 -15 0
-60 -5 -25 -30 0
-101 9 -26 -21 0
128 4 -21 -33 0
41 18 18 19 0
-127 22 -7 -14 0
121 48 51 98 0
152 49 8 15 0
-103 40 42 59 0
23 21 -8 -11 0
162 37 43 36 0
-82 21 25 -8 0
-46 33 -5 33 0
178 34 20 59 0
-10 32 1 47 0
-93 34 13 29 0
141 23 21 14 0
43 7 -7 3 0
-159 -9 -19 -8 0
33 -8 -35 -22 0
99 -6 -26 -14 0
-143 -10 -58 -49 0
-8 2 -4 -1 0
142 -3 -23 -16 0
-61 31 62 101 0
-74 14 -9 -9 0
162 29 -26 -12 0
6 21 -25 -8 0
-120 23 -3 6 0
150 48 91 102 0
102 40 21 64 0
-92 61 61 68 0
106 72 52 72 0
205 92 70 57 0
-65 47 51 24 0
-20 17 -2 -10 0
132 -16 47 78 0
-113 -32 -84 -57 0
-159 -53 -72 -43 0
92 -45 -69 -73 0
-53 -57 -65 -92 0
-193 -47 -74 -59 0
44 -43 -58 -37 0
34 -37 -105 -45 0
-181 -35 -26 -10 0
-4 -27 -46 -30 0
113 -12 -10 -17 0
-129 -11 3 9 0
-65 -27 -54 -63 0
162 17 41 45 0
-13 40 13 48 0
-99 20 -17 12 0
161 27 3 32 0
38 17 -3 -7 0
-143 22 13 -1 0
111 24 21 25 0
117 22 9 26 0
-140 13 4 26 0
45 43 21 42 0
175 34 17 30 0
-121 -10 -21 -25 0
-135 -59 -68 -59 0
69 -83 -83 -93 0
-98 -47 -38 -39 0
-194 -50 -67 -81 0
98 -14 -4 24 0
29 -14 -38 -24 0
-189 -14 -31 -6 0
60 4 -6 -14 0
92 -3 -1 -12 0
-136 9 2 -7 0
-30 -14 -12 -12 0
163 17 12 3 0
-101 -16 -27 -31 0
-70 11 3 21 0
160 15 -5 2 0
3 20 51 48 0
-120 16 -3 -30 0
129 11 -61 -50 0
97 39 9 95 0
-150 13 -25 39 0
49 -1 -49 11 0
127 -11 -27 -10 0
-170 -32 -40 -26 0
-57 -25 -38 -19 0
152 -4 -17 -12 0
-65 13 2 5 0
-74 34 39 30 0
187 45 35 32 0
61 59 40 41 0
-75 64 47 58 0
179 64 53 58 0
147 74 64 61 0
-91 57 45 53 0
65 29 19 20 0
126 9 31 30 0
-118 9 -80 -71 0
-42 22 -3 25 0
168 33 -17 18 0
-39 19 6 11 0
-99 35 26 37 0
175 50 22 34 0
75 39 4 20 0
-127 17 16 18 0
140 52 23 39 0
153 57 43 64 0
-95 55 30 59 0
54 40 12 37 0
153 20 15 24 0
-120 5 -16 -4 0
-41 18 -5 0 0
134 -3 -25 -17 0
-67 -13 -28 -23 0
-115 15 19 20 0
125 3 -29 15 0
25 4 -48 -2 0
-122 17 -53 -6 0
15 -28 -46 -24 0
122 20 18 18 1
-132 1 32 10 1
13 10 -11 -2 1
176 13 -32 -10 1
-98 4 -49 11 1
-72 23 -17 20 1
169 19 24 23 1
-12 8 33 0 1
-175 -36 -4 -48 2
88 -21 -47 -33 2
47 4 -114 -33 2
-173 -7 -160 -31 2
48 -7 -76 0 3
120 3 30 27 3
-125 25 81 34 3
-15 24 30 16 4
163 9 -14 -4 4
-61 22 30 23 4
-87 34 69 12 5
142 -5 81 -7 5
1 8 87 20 5
-113 47 83 37 6
154 59 21 55 6
125 48 -75 24 7
-123 35 -29 -6 7
35 17 74 15 7
91 0 26 3 8
-177 -1 -26 14 8
42 28 -13 6 9
182 38 49 38 9
-1 23 -75 -16 10
-87 7 -72 2 10
159 29 -23 35 11
17 47 65 32 11
-121 21 62 31 12
123 26 -100 -24 12
92 29 -20 22 13
-157 27 -45 6 13
48 16 -120 -22 14
178 34 -282 -30 15
-110 7 -217 -5 15
-25 16 41 66 16
123 -18 276 55 16
-78 -30 452 29 17
-175 -35 498 56 18
31 -58 247 -17 18
-48 -47 -4 -39 19
-192 -30 -166 -55 20
55 -12 -219 -51 21
131 19 -199 -25 22
-77 17 -496 -102 23
-3 -17 -501 -143 24
164 34 -173 11 25
-137 -28 184 59 26
-135 -52 117 14 26
125 -12 -44 -65 27
-5 19 -31 -27 28
-109 29 215 50 29
149 27 346 127 30
79 12 241 91 31
-106 38 -19 57 32
145 110 -75 35 33
201 96 -31 39 34
-27 84 167 96 35
112 124 95 144 36
238 77 -294 -46 37
-13 34 -354 -54 38
-232 -149 -559 -286 39
-29 -143 -372 -107 41
-151 -127 -448 -153 42
-250 -106 -94 -15 43
184 54 565 139 44
84 38 727 182 45
-137 75 857 165 46
127 111 589 157 47
223 103 405 64 48
-145 27 125 15 49
-47 -32 -219 -87 51
178 11 -290 -50 52
-199 -70 -405 -151 53
-201 -81 -425 -163 55
198 -6 -709 -207 56
266 275 -634 78 57
277 462 -21 369 59
782 641 733 701 60
1400 1238 1351 1303 61
1149 1395 1439 1359 62
1799 1855 2047 2010 63
1271 1126 2039 1321 64
-311 -7 703 96 66
-425 -249 -43 -165 67
1480 1104 939 1056 68
506 832 745 814 69
27 -83 -332 -176 71
-590 -1281 -1865 -1448 72
-1513 -1276 -1863 -1402 73
-929 -416 -1030 -591 74
-399 -848 -1828 -1073 75
-426 -837 -1420 -899 77
-1643 -1135 -1012 -1063 78
-1253 -1117 -711 -1075 79
-776 -1261 -1154 -1222 80
-1347 -1170 -673 -957 81
-796 -554 -32 -423 82
1143 885 1825 1115 83
-609 -450 663 -253 84
-792 -543 48 -511 85
-814 -960 -703 -974 86
-899 -687 -1027 -852 88
-364 -127 -876 -369 89
108 -413 -717 -419 91
-4 -223 -542 -317 93
-432 -64 -490 -187 94
44 -51 -287 -86 96
514 167 22 136 97
229 466 215 406 99
266 400 262 401 100
653 321 248 312 101
301 348 407 342 102
-34 192 136 185 103
349 132 -92 57 104
284 173 -48 55 105
-165 221 349 265 106
244 263 563 303 107
493 280 561 466 108
-49 226 360 259 108
147 219 287 240 109
415 117 42 102 109
-11 103 -12 97 110
-11 174 -97 65 110
350 86 -69 42 110
165 151 470 282 111
-43 208 456 321 111
296 157 84 169 111
201 80 -173 41 111
-130 46 -176 -18 112
-15 -46 101 49 112
155 -15 292 79 112
-29 76 231 129 112
-3 104 262 137 112
256 87 143 73 112
-18 10 -17 -28 112
-54 112 -28 20 112
127 18 -143 -26 112
56 5 -76 -1 111
-159 9 -93 -19 111
258 214 40 139 111
328 245 123 200 111
-24 136 195 174 111
-8 18 58 17 111
120 -37 -23 -42 110
-326 -199 -272 -233 110
-155 -71 -34 -12 110
134 -48 -11 -5 109
-25 61 79 52 109
-85 56 44 28 109
191 23 -34 8 108
64 35 -33 10 108
-213 8 -9 -29 107
189 81 183 99 107
148 39 87 49 106
-121 59 -98 12 106
-86 -71 -179 -121 105
184 -19 -23 -8 105
-198 -46 -98 -56 104
-153 -4 17 13 104
316 104 262 199 103
-56 11 7 31 102
-217 1 -59 -19 102
236 -5 -37 -11 101
116 41 185 70 100
-134 96 203 104 100
206 99 82 86 99
225 42 -65 -4 98
-221 -2 -46 -19 97
-85 -51 -131 -70 97
147 -81 -202 -125 96
-179 -48 -121 -72 95
-162 -12 3 -9 94
217 35 -2 15 93
36 38 62 63 92
-156 18 153 89 91
167 -6 125 72 90
138 75 59 72 89
-240 19 -61 -10 88
37 -44 -19 -42 86
133 -33 37 -25 85
-180 9 23 13 84
31 85 -17 38 83
208 -13 -216 -56 82
-79 14 -91 -19 81
-140 29 68 41 79
157 -2 105 17 78
123 68 77 67 77
-185 -19 -82 -34 75
127 18 -39 -1 74
124 13 13 18 72
-293 -124 -209 -150 71
-48 -61 -72 -69 69
237 62 206 124 68
-85 51 220 112 66
-28 19 46 34 65
111 -36 -185 -68 63
-87 -19 -139 -64 62
-198 -61 -85 -55 60
190 -14 -30 -5 58
169 92 56 79 57
-171 68 6 26 55
146 75 29 42 53
135 -19 -28 -23 52
-74 100 80 77 50
-1 37 1 7 49
192 32 39 37 47
-110 -14 -37 -46 45
-112 24 47 37 44
210 46 85 47 42
-1 5 98 22 40
-161 -17 36 -3 39
146 11 12 14 37
107 67 30 48 36
-185 1 -43 -10 34
61 7 -64 -21 33
75 -30 -105 -63 31
-115 63 23 44 30
-69 -38 -68 -32 29
157 -32 -63 -14 28
-9 68 31 68 26
-88 63 41 67 25
233 69 44 88 24
29 4 -28 9 23
-191 -14 -43 -5 22
57 -23 -149 -57 22
87 -15 -205 -37 21
-163 4 -209 -3 20
15 8 25 33 19
149 -6 158 8 19
-169 -61 123 -53 18
-76 -25 22 -25 17
184 38 -68 37 17
-85 28 -80 40 16
-71 24 -69 8 16
173 22 65 -16 16
8 9 32 -32 15
-123 18 82 34 15
107 11 20 35 15
126 3 55 80 15
-107 54 -6 39 15
-4 10 -35 -25 15
130 -16 79 -23 15
-134 -8 168 -3 15
-126 -1 -97 -79 15
168 -4 -192 -36 15
-28 -24 -65 38 16
-147 -29 31 22 16
147 55 -15 24 16
67 20 -132 -2 17
-162 11 -87 -19 17
58 -13 -56 45 18
136 18 160 43 18
-146 5 189 45 19
-35 -35 121 -14 20
216 57 101 21 21
-71 59 44 21 21
-13 103 151 78 22
261 84 168 91 23
14 15 37 23 24
-176 -12 -19 -3 25
141 -9 -83 -12 26
102 -1 -231 -36 28
-174 35 -254 -68 29
60 2 -149 -31 30
131 10 17 3 31
-169 -7 -100 -9 32
-43 -27 -81 5 33
198 37 127 64 35
-61 29 184 31 36
-147 -12 126 -5 37
149 -29 26 -52 38
-29 -25 -7 -17 40
-213 -20 -62 -7 41
126 12 -149 -30 42
66 -17 -83 -11 43
-234 -25 16 -19 45
-46 -20 0 -46 46
246 34 -26 37 47
-70 75 -213 15 49
68 136 71 98 50
331 129 -137 78 51
-14 77 -331 -29 52
-90 79 -141 25 54
139 -45 324 143 55
-63 -39 256 -8 56
-224 -66 45 -80 58
-56 -110 24 -125 59
73 -56 477 48 60
-213 -22 619 192 62
-3 13 -71 12 63
198 29 -712 -133 64
-119 -3 -719 -134 66
-95 -5 -273 -82 67
150 -4 50 20 69
22 47 139 4 70
-91 64 -86 3 71
191 33 -344 -46 73
23 -22 3 -33 74
-169 -15 95 45 75
74 19 -11 5 76
114 -28 110 95 78
-129 -1 515 61 79
-46 -24 514 51 80
129 7 89 10 82
-69 31 -532 -53 83
-91 -30 -677 -209 85
172 35 -412 -112 86
-6 26 447 228 88
-129 23 350 98 89
136 70 813 364 90
147 53 406 17 92
-144 40 -391 -242 93
66 -11 -211 -103 95
147 -9 80 81 96
-119 29 -261 -34 98
8 79 -215 -4 99
207 25 -409 -16 101
-101 -71 -434 -54 102
-154 -28 105 78 103
162 18 294 4 105
0 -5 -110 -151 106
-154 -1 178 71 107
157 69 392 202 108
94 41 -179 47 110
-105 81 144 151 111
41 9 68 -70 112
187 29 220 31 113
-201 11 173 -29 114
0 55 -237 -36 115
226 1 -425 -128 116
-58 31 -191 -79 117
-185 -21 -30 -7 118
223 36 118 104 118
35 35 107 106 119
-182 1 -1 19 120
130 -16 -124 -61 121
79 -49 -118 -70 121
-287 -77 -88 -73 122
-2 -18 -207 -101 122
151 -62 -21 -22 122
-254 -55 -144 -109 123
-156 -51 -61 -51 123
241 32 233 73 123
-105 10 189 72 123
-161 52 177 70 123
169 -29 -113 -52 123
-53 -59 -233 -104 123
-257 7 38 42 123
85 -34 -33 -38 123
134 -7 -6 -1 123
-249 -10 -40 -23 123
74 53 31 52 123
278 82 -2 35 122
-52 108 100 120 122
-5 90 92 102 121
308 118 200 140 121
55 91 36 56 120
-95 79 91 81 120
326 165 242 210 119
262 181 211 187 118
-103 152 151 146 117
223 126 41 66 116
276 119 122 125 115
-98 131 144 139 114
33 73 18 49 113
217 5 -16 8 112
-205 -39 -59 -51 111
-253 -104 -269 -158 109
88 -108 -230 -132 108
-192 -139 -79 -93 107
-382 -158 -55 -103 105
-29 -154 -74 -129 104
-23 -117 -159 -154 103
-347 -77 -120 -125 101
5 -65 -20 -67 99
161 -55 80 30 98
-164 -5 41 15 96
32 26 46 48 95
249 -10 -166 -81 93
-167 -54 -197 -81 91
-194 -27 -24 -28 90
173 -50 -62 -36 88
-60 -81 -73 -71 86
-293 -107 -74 -61 84
66 -89 -124 -75 82
51 -60 -306 -121 80
-239 -24 -177 -68 78
16 -18 90 -45 76
173 -4 415 124 75
-160 0 277 90 73
-42 17 -90 -19 71
226 4 -232 -37 69
-65 21 -37 -19 67
-201 -23 -5 -20 65
166 -8 1 -22 64
60 13 12 -1 62
-226 27 -9 16 60
171 23 -153 -4 58
136 20 -226 -45 57
-95 73 -44 47 55
35 51 163 43 53
221 54 331 82 51
-31 99 219 96 49
97 193 -46 131 47
289 127 -144 85 46
63 84 131 101 44
-105 35 219 68 42
176 43 229 57 40
127 96 47 74 38
-66 103 -65 60 37
92 66 -52 72 35
211 73 -15 58 33
-57 104 157 111 32
106 100 74 84 31
258 84 -4 92 30
22 97 -107 81 28
-21 73 0 78 27
268 119 46 132 26
136 132 152 150 26
-141 29 81 32 25
45 -36 67 -15 24
-6 -98 -24 -107 24
-259 -113 -324 -147 23
-48 -74 -203 -76 23
106 -44 -49 -56 23
-211 -53 -88 -56 22
-88 -8 -103 -42 22
139 1 121 46 22
-67 11 66 6 22
-130 -30 -97 -64 22
120 -15 16 9 22
-20 -37 248 -27 22
-201 -5 355 42 23
70 3 -79 -86 23
61 -17 -507 -102 23
-209 -37 -215 -36 24
19 -28 31 11 25
158 29 25 16 25
-148 12 -90 -11 26
-105 -20 80 -8 27
167 -21 91 -9 28
-75 -27 -51 16 29
-146 -20 -78 -84 29
138 7 -93 -36 30
-42 -24 242 11 31
-141 -36 166 65 33
169 59 -24 -26 34
163 35 -264 1 35
-144 35 -142 -49 36
-18 3 142 86 37
195 37 230 -20 38
-87 45 75 35 40
-36 71 -175 27 41
270 98 -454 46 43
19 65 -273 75 44
-143 35 452 87 46
165 -1 873 115 47
19 3 595 -3 49
-239 -28 -347 -162 50
38 -54 -721 -145 52
166 -19 -333 0 54
-179 21 -162 77 55
-24 4 -256 -8 57
157 -68 -74 -6 58
-205 -78 92 -86 60
-224 -114 274 -32 62
119 -16 -43 -159 63
-25 -47 -635 -189 65
-194 -69 -174 16 66
123 -19 171 60 68
43 -41 -417 -23 69
-194 34 -479 -96 71
69 34 217 27 73
157 23 1545 446 74
-155 23 754 59 76
-17 7 -503 -147 78
204 32 -437 -145 79
-45 49 341 85 81
-145 -1 -13 28 83
199 26 -451 -61 84
72 88 -371 -95 86
-145 -25 -220 -112 88
116 -77 -327 -52 89
116 -9 -161 26 91
-156 51 114 78 93
116 46 640 195 94
275 107 573 75 96
-157 -32 129 -25 97
-50 32 -472 -165 99
239 54 -199 -42 101
-89 30 350 128 102
-195 -60 359 36 104
239 76 133 23 105
-8 -130 -597 -245 106
-129 85 -209 15 108
112 11 45 45 109
68 41 -321 -178 110
-151 57 -449 -167 112
61 16 25 137 113
182 13 275 129 114
-149 13 204 77 115
-111 20 44 -29 116
67 -148 -137 -116 116
-104 -78 -168 -97 117
-275 -179 -145 -136 118
234 80 31 -3 119
37 39 -30 -26 119
-104 48 59 10 120
101 10 2 -12 120
230 104 107 160 121
-219 -18 -98 -37 121
-21 -53 -36 -19 121
219 -18 -49 43 122
-24 165 0 190 122
-30 181 74 224 122
222 38 140 77 121
-38 -26 233 12 121
-202 18 166 27 121
139 -19 19 16 121
132 13 -20 -18 120
-175 -13 -1 -17 120
79 -7 -49 -17 119
227 -2 -92 -23 118
-213 -15 -15 -11 117
-257 -65 -123 -93 116
-54 -43 -110 -41 115
-294 10 6 37 113
-209 2 -271 -88 112
213 11 6 50 111
12 -3 155 51 109
-162 4 118 37 107
148 19 118 54 106
135 -9 9 -13 104
-112 23 54 -13 102
99 6 243 102 100
306 45 -80 21 98
-19 42 -199 -23 96
-17 30 -127 -17 94
203 -1 -51 -31 92
-9 -3 -120 -20 90
-133 -23 -13 -28 88
189 43 212 93 86
47 -5 13 8 84
-196 -5 -7 -16 81
33 -21 -196 -59 79
144 30 95 -14 77
-150 -6 309 116 75
9 -6 183 41 73
214 -3 8 28 71
-128 -13 -112 -39 69
-143 -29 -119 -49 67
185 8 -102 -19 65
-109 -28 -273 -100 63
-202 -56 -255 -103 61
178 19 -78 -8 60
15 -21 -32 -50 58
-208 -5 104 -13 56
86 -3 -57 -21 54
123 7 18 -6 52
-141 55 185 73 50
78 107 240 99 48
309 115 205 103 46
-35 81 37 52 44
-51 58 -29 38 42
229 41 0 27 41
-17 15 -37 -10 39
-159 8 -72 -56 37
111 -40 -89 -98 36
53 -28 -53 -29 34
-122 72 59 136 32
28 1 -45 38 31
168 46 -16 71 29
-133 15 -102 -7 28
-41 24 -130 1 26
134 -21 -154 -26 25
-42 37 50 26 23
-100 8 227 49 22
163 32 184 24 21
-40 -25 38 -37 20
-173 5 -94 -30 18
98 2 -136 -15 17
102 15 -145 -13 17
-149 20 -110 24 16
53 40 32 50 15
174 34 91 42 14
-135 1 -110 -17 14
-40 33 -237 19 13
218 56 0 75 13
-16 46 321 106 13
-128 -5 399 -7 13
195 43 222 -7 12
21 -1 -157 -83 12
-167 8 -345 -59 12
86 -12 -294 -59 13
68 -20 -44 -40 13
-166 15 61 45 13
-2 8 -13 69 13
184 17 -77 40 13
-111 19 146 34 14
-65 12 274 -6 14
179 23 260 1 15
-14 44 54 20 15
-146 9 -154 -36 16
147 31 -253 -2 17
107 18 -113 50 18
-117 53 87 95 19
113 43 139 40 20
139 43 -183 -14 21
-153 3 -91 -25 22
-31 -36 233 19 23
137 8 157 46 24
-60 48 101 16 26
-80 68 -103 47 27
215 38 311 60 28
24 9 231 80 30
-154 32 -223 -28 31
129 45 -154 23 33
105 33 9 33 35
-145 11 30 -6 36
0 -8 -13 -28 38
138 -27 -130 -17 40
-183 -43 -492 -70 42
-97 -47 -17 -33 43
129 -75 30 -53 45
-148 -14 229 -96 47
-140 -23 129 38 49
196 27 91 41 51
44 46 278 190 53
-113 84 192 88 55
150 20 -455 -37 57
139 42 -426 -97 59
-175 -22 158 50 61
-13 10 944 208 63
201 62 657 129 65
-90 64 -50 -17 67
79 151 -610 -40 69
235 124 -546 -87 71
-140 -19 -217 46 73
-335 -129 120 -132 75
33 -129 -384 -187 77
-20 -111 -639 -378 79
-188 -45 21 -13 80
36 -16 947 314 82
13 -70 209 -17 84
-134 47 -197 -50 86
37 14 -89 -67 87
226 103 485 204 89
-58 43 441 206 91
-37 52 -219 -4 93
175 -10 -579 -243 94
-47 -30 -99 -24 96
-165 -69 -81 -107 97
142 3 53 33 99
125 167 456 239 100
-149 18 -29 2 102
111 -38 -273 -91 103
122 34 -187 -56 104
-225 -17 -169 -105 105
16 23 -149 -54 107
265 82 -34 24 108
-63 -62 -5 -1 109
-154 0 -102 -113 110
179 -13 -90 -103 111
-47 -20 2 -54 111
-113 58 124 95 112
223 103 83 199 113
85 79 53 119 113
-58 225 177 237 114
45 -26 -20 9 114
183 93 103 131 115
-133 33 -12 58 115
-59 -11 -44 -29 115
145 -15 27 -11 115
-90 -5 -37 -28 115
-104 -10 -33 -25 115
168 -1 53 1 115
-18 13 99 -11 115
-196 -24 116 5 114
128 -1 26 -9 114
-11 -15 -49 -24 113
-269 -5 -11 -2 112
61 21 -2 16 111
133 4 -83 -18 111
-171 -9 -142 -64 110
-91 -5 59 42 108
112 3 78 76 107
-111 14 -136 -9 106
-183 5 -125 -4 105
230 28 39 25 103
-1 -2 237 58 102
-95 46 309 111 100
151 -43 -137 -90 99
129 5 -43 -17 97
-171 17 83 35 96
92 24 94 19 94
233 28 -1 14 92
-115 -13 -114 -38 90
-67 9 -174 -60 88
260 33 -123 13 87
20 47 -77 0 85
-133 14 4 18 83
185 10 -91 6 81
59 23 -141 -71 79
-231 -9 228 93 77
168 16 469 111 75
94 -46 324 93 73
-233 -3 -4 -11 71
-27 -40 -154 -57 69
192 50 -41 -11 67
-156 -7 -98 -22 66
-64 50 -79 9 64
185 14 -67 -23 63
-24 32 5 5 61
-115 38 -109 -5 60
180 54 -165 4 58
113 24 -118 17 57
-177 16 57 2 55
-11 -39 19 -60 53
184 17 31 -17 51
-153 26 -25 -3 50
-11 6 143 55 48
217 37 187 50 46
-129 -43 82 -23 45
-121 -2 -56 -42 43
159 -21 -101 -37 42
-18 15 -49 5 40
-221 -17 -101 -29 39
115 -3 -91 -15 37
95 11 -39 6 36
-118 74 -1 16 34
53 14 -29 -3 33
161 11 -51 6 32
-138 1 -226 28 30
-43 34 -143 46 29
198 60 -18 58 28
-67 -11 205 18 27
-136 -39 297 19 26
116 -3 62 -8 25
42 15 -223 -38 24
-145 4 -381 -49 23
65 0 -230 23 22
86 13 199 39 21
-129 4 341 29 20
23 -3 331 5 20
182 24 67 25 19
-101 40 -112 29 19
-98 46 -151 41 19
261 36 8 60 18
-5 13 49 55 18
-103 5 -123 -13 18
147 13 -287 -56 18
-5 -12 -306 -50 18
-120 -13 -27 -5 18
57 -14 141 20 18
139 -4 115 34 19
-176 -31 -45 33 19
-78 15 -81 -27 19
124 22 50 -17 20
-88 -25 238 11 20
-101 -19 84 15 21
181 57 51 52 22
10 -11 193 97 23
-128 -29 29 19 24
107 26 161 51 25
101 45 -14 51 26
-159 50 218 64 28
83 67 70 35 29
220 44 -88 -22 31
-127 24 -209 -43 32
47 54 -81 13 34
235 43 -219 4 35
-58 71 -246 46 37
-62 32 -74 28 39
211 6 469 171 41
3 18 27 -7 42
-168 -25 63 -39 44
118 16 213 79 46
51 -17 251 3 48
-239 33 11 117 50
39 22 -336 -112 52
162 28 -86 -24 54
-153 -1 231 -41 56
-33 -1 390 56 58
199 22 111 -21 60
-48 48 -179 -7 62
-77 30 -246 -12 64
208 3 -643 -39 66
-40 -35 -43 -22 68
-275 -122 88 -46 70
47 -59 66 -1 72
33 -33 -137 -87 74
-250 1 -96 -56 75
-5 28 231 96 77
127 -30 69 -28 79
-107 19 -132 -1 81
16 45 50 114 83
194 -8 112 66 84
-33 36 86 91 86
-121 46 50 -36 88
201 -11 -13 -9 89
-8 -39 -9 -69 91
-247 -62 -369 -207 92
81 -19 -333 -127 94
105 -10 104 91 95
-183 8 55 31 96
-12 2 14 16 98
164 -10 -185 -85 99
-144 -98 -182 -86 100
-83 -29 -75 -34 101
168 69 -96 -67 102
-69 -27 -130 -93 103
-182 -13 -60 -37 104
128 -127 -56 -55 105
154 178 109 102 106
-112 90 66 45 106
95 29 68 39 107
254 135 129 152 108
-95 77 78 117 108
-52 -23 -51 -33 109
131 -41 -59 -73 109
-107 7 32 32 110
-63 100 143 137 110
227 60 77 112 110
37 35 12 34 110
-146 44 56 51 110
131 8 22 13 110
64 -35 -33 -35 110
-176 9 -67 -30 110
1 -13 4 0 110
134 -4 -13 -17 109
-161 11 -22 -11 109
-49 1 63 37 108
218 33 79 67 108
-71 16 77 33 107
-137 -45 -109 -84 106
111 -3 -49 -35 105
-42 15 60 29 104
-228 1 71 29 103
92 23 -47 -35 102
66 -2 -59 -23 101
-156 7 56 62 99
18 -6 49 28 98
169 -16 -4 -6 97
-126 -27 -61 -19 95
-64 -5 -210 -79 94
204 32 -107 -1 92
-22 38 100 82 90
-108 -14 246 97 88
202 37 67 11 86
82 41 -31 -16 84
-107 51 91 53 82
143 24 227 120 80
162 -17 88 50 78
-192 -29 -100 -42 76
-12 -41 -93 -60 74
209 -7 -33 0 72
-92 -16 -211 -65 70
-88 -12 -311 -76 68
115 -31 -83 -49 66
-40 -24 89 14 64
-168 11 141 -6 62
153 7 -41 -59 60
75 -1 -91 -57 58
-195 47 78 49 56
108 86 229 136 54
203 85 144 111 52
-105 64 93 63 50
-59 -59 -52 -40 48
157 29 -55 -26 46
-117 -1 -65 -24 44
-125 26 -78 -21 42
145 -15 -94 -84 41
-15 -59 -87 -113 39
-141 14 79 127 37
148 10 -37 31 36
89 30 -5 54 34
-111 3 -9 -3 33
109 45 43 38 31
177 62 37 80 30
-141 -2 -69 -19 29
-42 -9 -37 -22 27
174 8 18 30 26
-67 11 -10 10 25
-111 -6 -27 -21 24
155 -25 -35 -5 22
-25 -13 -121 -38 21
-204 -37 -194 -73 20
53 -37 -220 -65 20
53 -34 37 11 19
-177 -11 250 46 18
13 -16 207 -18 17
160 9 -13 -33 17
-107 8 -213 -36 16
-89 10 -440 -25 16
220 14 -210 32 15
-73 -8 -45 -12 15
-118 -10 279 21 15
153 5 203 -9 15
25 24 -33 15 15
-169 -23 -53 -8 15
93 -8 205 46 15
96 16 298 66 15
-147 41 30 12 15
45 76 -74 21 15
258 42 -226 33 15
-85 52 -60 53 16
2 80 67 109 16
248 75 225 143 17
-7 25 127 52 17
-60 51 -45 8 18
122 34 -65 0 19
35 -9 -256 26 20
-200 -27 37 27 21
38 0 -98 -59 23
180 78 281 49 24
-158 80 522 40 25
28 52 509 107 27
165 -3 -13 -3 28
-125 13 -361 -80 30
-100 1 -217 -17 32
190 12 97 36 34
53 13 295 66 35
-189 -29 -203 -101 37
162 52 -279 -29 39
87 40 -573 -67 41
-219 -23 -218 -22 43
8 -5 -175 -66 45
109 -74 -34 7 47
-155 -37 -15 27 49
-109 -7 37 -86 51
326 94 591 215 53
-66 46 550 184 56
-133 11 211 128 58
131 -24 -380 -188 60
-127 -64 -526 -219 62
-285 -57 -607 -129 64
50 -54 -65 0 66
89 -5 275 26 68
-231 -26 391 27 70
2 10 473 37 73
199 -35 159 35 75
-34 28 -102 -93 77
-20 69 -16 83 79
262 112 344 201 81
-48 29 95 53 83
-128 54 -933 -167 86
155 -52 -742 -265 88
-13 -36 369 138 90
-98 56 1048 332 92
163 109 556 134 94
162 -34 -505 -140 96
-113 -7 -450 -117 97
100 25 -80 -17 99
136 -15 -214 -82 101
-83 128 -173 -29 103
-63 -125 -145 -62 104
159 -18 -59 1 106
-28 43 -115 -22 107
-145 4 -99 -37 108
85 -58 -103 -86 110
128 18 27 11 111
-190 -96 -29 -33 112
66 87 31 -24 113
90 -112 -61 -101 114
-241 -64 -57 -147 115
-76 12 3 -118 116
222 35 37 1 117
29 200 180 284 118
-68 91 74 276 119
289 176 177 395 119
99 128 113 219 119
-103 41 18 62 119
137 21 -60 30 119
36 -32 -248 -103 119
-164 -76 -104 -93 119
87 37 223 18 119
100 -13 328 45 119
-181 21 175 17 118
-194 -39 -78 -65 118
11 -47 -119 -62 117
-101 -28 -33 -48 116
-201 -9 -86 -45 115
140 12 -32 -1 114
22 24 89 81 112
-195 -22 4 1 111
87 8 30 43 110
110 34 -31 6 108
-157 -11 -116 -51 107
-37 -34 -221 -90 105
124 -62 -245 -126 103
-167 -53 1 -23 101
-55 1 271 122 99
194 19 102 40 97
-46 -14 -8 -37 95
-161 -14 65 2 93
154 29 143 57 91
134 53 179 114 89
-132 -17 -157 -36 87
203 24 -263 -59 84
175 17 -132 -27 82
-208 -2 61 -31 80
49 0 204 24 78
232 16 -12 15 75
-121 19 -72 2 73
-77 -17 19 -10 71
186 -48 64 -17 69
-136 -45 -111 -20 66
-64 8 -162 -3 64
165 21 106 64 62
75 24 163 2 60
-174 2 4 -17 58
18 -22 -128 -47 56
123 48 7 7 54
-148 5 96 8 52
74 93 96 68 50
236 43 -61 2 48
-21 124 -1 69 46
-26 83 54 53 44
238 80 56 41 42
-48 -21 -60 -14 41
-238 -54 -108 -61 39
84 -35 -96 -36 37
69 -20 -100 -30 35
-164 34 -77 28 33
57 21 -62 33 32
116 -15 -93 -22 30
-202 -26 39 4 28
-64 22 48 6 27
257 57 120 88 25
-48 24 144 21 24
-110 1 135 29 23
111 -55 -31 -80 21
-85 -60 -151 -87 20
-204 -22 -203 -57 19
48 -53 -44 -32 18
54 -65 24 -23 17
-211 -34 -176 -61 17
31 -9 -330 -49 16
167 4 -95 42 16
-141 -7 166 42 15
66 125 208 125 15
157 19 -317 -43 14
-46 23 -453 -59 14
8 115 -139 88 14
71 -34 127 29 14
97 34 376 59 14
-137 3 208 14 14
36 -11 253 -12 14
123 49 248 68 14
-109 37 249 43 15
-1 -7 185 45 15
163 27 -133 49 15
-43 31 -280 7 16
-48 27 -467 -37 17
165 8 -199 -26 18
-6 25 101 55 19
-94 26 258 79 20
174 63 245 58 21
116 -12 92 36 22
-170 -49 163 -5 24
45 70 281 144 25
167 97 397 88 27
-93 99 450 136 29
18 26 301 -18 31
222 83 -292 -12 33
-54 117 -262 -15 35
-27 60 -290 27 37
225 17 -383 -37 39
-65 -53 -716 -155 41
-228 -95 -97 -96 44
40 -132 361 4 46
51 6 479 111 48
-158 39 -121 -105 50
27 64 -430 -186 53
88 -58 -172 -35 55
-165 -51 397 50 57
-157 -107 357 171 59
118 2 -12 -52 62
-121 -10 -53 9 64
-186 17 120 -75 66
187 47 313 127 69
81 80 165 121 71
-113 44 -259 -86 73
116 11 -76 -85 75
78 -47 198 7 78
-129 0 10 12 80
26 -57 -741 -249 82
205 -13 -468 -63 84
-151 -73 162 135 86
-64 62 266 162 88
210 103 572 210 90
-32 34 434 66 92
-146 -97 -67 -121 94
330 207 -92 5 96
142 48 -509 -103 98
-126 159 -164 3 100
31 -125 -122 -93 102
177 95 -96 -42 103
-183 -16 126 47 105
16 -38 398 211 106
112 -114 96 -3 108
-165 -20 -367 -190 109
-107 82 -224 -93 111
191 32 -51 -9 112
-13 -47 -152 -69 114
-217 -154 -177 -150 115
70 2 -119 -143 116
69 -65 19 10 117
-259 -101 -119 -105 118
110 79 33 31 119
57 -36 -57 -111 120
-42 119 129 112 121
-212 -173 -136 -148 121
339 176 152 261 122
15 189 174 279 122
-36 176 110 204 122
226 19 -23 83 122
43 60 47 77 122
-212 -3 -92 -20 122
183 7 -5 2 122
99 3 97 28 122
-232 -30 47 -65 121
126 32 133 41 121
151 -36 -40 -68 120
-279 -59 -17 -34 120
-70 -8 64 33 119
74 -54 -74 -56 118
-196 -123 -163 -127 117
-177 -42 -43 -28 115
25 1 -1 9 114
57 115 73 106 113
-202 -24 -73 -16 111
159 15 -38 17 110
103 10 -126 -16 108
-187 -1 -33 25 106
-14 4 95 30 105
210 30 37 6 103
-185 -48 60 -26 101
-49 -14 21 -32 99
226 68 117 27 96
-20 -17 201 95 94
-92 28 25 32 92
192 -14 -38 7 90
80 -6 -111 -42 87
-141 -19 -167 -65 85
128 1 -125 -45 83
196 33 -51 12 80
-133 26 -200 0 78
-15 -24 -87 -59 75
250 7 -46 -60 73
-189 -37 224 24 70
18 48 312 113 68
237 42 201 133 65
-47 72 150 120 63
-169 -44 -50 -41 61
94 -80 -123 -66 59
145 81 9 44 57
-206 0 -69 -33 55
28 -41 -170 -127 53
43 -103 -193 -146 51
-161 26 -40 14 49
8 41 -72 39 47
225 49 -145 7 45
-55 45 -134 -29 43
-72 8 106 61 41
201 96 83 33 39
-8 28 47 -8 38
-151 55 5 -5 36
144 25 125 65 34
129 88 229 93 32
-146 69 212 114 31
88 38 96 27 29
140 24 -55 2 28
-118 59 -129 -9 27
63 32 -103 31 25
173 -21 -22 -9 24
-104 -44 5 -18 23
-203 -67 -119 -60 23
29 -99 -138 -98 22
-73 -80 -59 -63 21
-195 -23 -53 -35 20
127 30 -97 14 20
100 -1 -241 -8 19
-148 10 -273 -3 19
-30 -12 -165 -29 19
153 8 -46 22 18
-119 8 63 25 18
-64 13 58 15 18
238 27 258 38 18
-17 50 416 21 18
-145 9 311 35 18
205 75 127 22 18
-37 -14 -29 6 18
-106 22 136 34 18
109 20 -165 -12 19
145 22 -395 -77 19
-144 49 -448 43 19
-29 -18 -67 -16 20
164 11 235 109 21
-77 26 58 47 21
-46 41 -255 -8 22
117 27 -341 -34 23
-94 3 381 145 24
-83 -3 484 17 25
118 -35 176 65 27
85 15 17 110 28
-164 -65 264 -29 29
11 11 281 49 31
228 143 11 -69 33
-99 55 -357 -36 35
30 56 -281 13 37
171 -24 399 81 39
-69 35 103 82 41
24 95 -277 23 43
235 84 -119 113 45
45 100 815 241 48
-234 0 805 56 50
98 8 -108 -115 52
22 -92 -1037 -343 55
-212 -93 -936 -209 57
3 -91 -159 -88 59
80 -50 265 -32 62
-138 60 321 11 64
8 32 -8 18 66
209 45 -3 68 69
-66 -56 -300 -75 71
-120 -9 -169 -13 73
190 26 481 181 75
-26 -37 226 105 77
-198 -29 109 12 80
135 28 -299 -24 82
73 69 214 40 84
-240 56 138 4 86
19 -27 -67 -102 88
98 -52 -459 -250 90
-221 -42 -191 -13 92
-87 -137 107 69 94
235 -75 -167 -54 95
-76 -1 -555 -173 97
-35 103 -32 74 99
183 36 205 97 101
55 75 197 71 102
-201 -55 -116 -109 104
53 -125 -211 -118 105
137 39 -16 39 107
-162 -29 33 41 108
-1 29 -117 -46 109
240 63 -74 -31 111
-124 8 -37 -14 112
-105 -11 -38 -30 113
239 56 -35 -22 114
-1 -21 25 -53 115
-292 -140 -170 -295 116
233 21 79 92 117
19 -56 -30 -15 118
-138 68 106 128 119
128 109 106 171 119
211 117 114 199 120
-181 63 51 190 120
-25 88 30 89 120
180 65 60 47 121
-87 58 41 51 121
-105 -16 11 0 121
251 21 32 0 120
-30 -13 -1 -29 120
-206 -78 -105 -114 120
184 -6 -17 -33 119
25 6 18 -2 119
-153 63 102 77 118
-36 -97 -81 -86 117
111 46 81 48 116
-144 29 55 19 115
6 66 88 72 114
199 -3 -27 0 113
-155 -29 -68 -21 111
-206 -10 -30 2 110
31 -40 -76 -52 108
3 -16 -106 -61 106
-234 -21 -103 -48 105
94 9 34 30 103
55 -30 -222 -81 101
-230 -21 -184 -71 99
8 11 152 73 97
177 21 311 113 94
-119 30 299 111 92
-64 -25 -205 -134 90
188 0 -129 -63 87
91 79 233 160 85
-70 51 168 91 82
302 84 55 68 80
143 45 -84 -14 78
-140 -2 -127 -54 75
151 -10 -294 -75 73
136 -18 -291 -63 70
-189 -63 -173 -81 68
-41 -12 82 -38 66
183 10 313 55 63
-82 -13 272 53 61
-34 35 211 71 59
179 -23 -145 -40 56
17 45 -235 -30 54
-183 -10 -142 -29 52
141 40 132 26 50
82 33 182 5 48
-110 82 132 88 46
101 74 -11 62 44
166 68 -24 37 42
-142 23 -77 -27 40
-6 36 -111 -3 38
211 25 -125 16 36
-47 54 3 33 34
-81 16 -2 -3 33
212 49 40 40 31
24 35 -55 32 29
-139 23 -143 7 27
126 27 6 45 26
123 47 55 46 24
-166 21 63 32 22
42 1 -10 -26 21
152 19 -113 -27 20
-131 21 -77 14 19
-113 -5 -25 -3 17
143 -69 152 9 16
-96 -71 241 -41 16
-144 -49 94 -42 15
133 -37 -76 -66 14
-47 -49 -177 -47 14
-219 -24 -129 -14 14
54 -23 -253 -51 13
81 -17 -327 -70 13
-145 6 -288 -49 13
20 24 42 37 13
159 39 233 77 13
-60 64 79 17 13
-76 48 -282 26 14
224 66 -356 -25 14
-47 16 -166 44 14
-93 50 456 77 15
196 2 423 65 15
19 66 158 71 16
-96 19 284 103 17
80 27 348 86 18
111 39 173 62 19
-132 7 33 4 20
-21 4 -142 -5 21
150 70 -342 -34 23
-64 -8 -139 61 24
-92 -15 -71 21 26
203 1 379 95 27
12 47 453 61 29
-64 93 -121 -86 31
173 65 45 38 33
149 77 43 39 35
-116 53 162 20 37
104 58 -94 20 39
166 -12 -557 -50 41
-192 -52 -408 -49 43
-30 -40 126 65 45
119 -1 640 95 47
-100 -25 316 11 49
-68 19 -485 -93 52
197 62 -330 -56 54
16 40 -215 32 56
-201 -37 357 -8 58
12 -72 95 19 60
-1 -73 -196 -101 62
-256 -36 -237 -28 65
-29 -24 137 -20 67
88 -25 37 -33 69
-205 -13 115 -47 71
-37 -50 200 89 73
209 -7 -121 -65 75
23 93 107 38 77
-94 23 -125 1 80
193 20 -355 -49 82
22 -43 -162 -20 84
-135 6 -274 15 86
128 55 356 223 88
96 72 -55 -23 90
-103 67 -25 -91 92
50 -8 89 -51 94
146 -5 519 46 96
-122 -10 21 -92 98
-31 5 -160 -45 99
195 -16 8 54 101
-59 -98 -167 -84 103
-104 98 51 63 105
208 38 163 157 107
58 62 60 73 108
-116 32 247 156 110
131 7 -377 -160 111
133 -57 -471 -185 113
-152 26 -12 -29 114
9 -8 82 42 116
162 55 65 87 117
-119 68 65 72 118
-151 -34 -128 -75 119
176 17 -73 -12 120
-123 -65 -74 -69 122
-163 -47 -17 -17 123
179 7 25 14 123
48 -14 -16 16 124
-230 -33 -18 -33 125
93 -40 -58 -64 125
155 34 42 19 126
-200 -38 -53 -69 126
116 124 149 106 126
185 18 25 93 126
-26 132 150 199 126
-61 37 18 98 126
191 8 -91 -21 126
-80 -25 -27 -11 126
-222 5 63 67 126
112 -61 -219 -148 125
126 0 8 4 125
-201 36 144 88 124
135 49 283 121 123
235 42 174 73 123
-141 -1 -77 -52 122
-69 -4 -72 -11 121
87 -29 -40 -34 120
-215 -34 -79 -70 119
-283 -33 -99 -58 117
27 -15 -46 -4 116
-10 1 -11 9 115
-230 7 -15 -3 113
121 30 -61 -3 112
160 33 23 23 110
-151 0 -125 -21 108
18 19 -95 -29 106
175 2 164 93 105
-97 44 187 79 103
-117 5 254 100 101
165 12 55 24 98
-86 -36 -88 -69 96
-144 -5 -48 -39 94
214 24 -74 -26 92
96 16 -161 -21 89
-177 9 -315 -49 87
145 36 -103 -13 85
152 36 92 46 82
-76 9 189 64 80
26 -9 -40 -19 77
184 -8 -106 -54 75
-57 10 180 63 72
63 69 413 107 70
246 47 303 153 67
25 67 -3 63 65
-211 -58 -156 -53 63
97 -74 -193 -116 60
5 -3 -173 -53 58
-188 -12 -167 -47 56
78 24 -33 -22 54
149 13 1 -46 53
-119 33 36 15 51
-5 34 -85 9 49
184 13 -40 29 47
-117 0 -164 -42 45
-39 64 -162 4 43
150 2 -208 -47 41
-19 5 92 35 39
-173 -24 329 23 37
100 2 255 15 35
51 33 -39 9 34
-145 53 -61 31 32
35 40 -104 31 30
170 26 47 43 29
-79 35 79 52 27
-27 17 -9 -15 26
152 1 -36 -12 25
-84 -2 -9 -15 24
-144 -29 48 -8 23
133 -17 -69 8 22
25 -17 -248 -53 21
-162 1 -299 -12 21
51 -29 -129 8 20
112 1 49 9 20
-146 -4 -169 6 19
73 40 -53 -20 19
181 34 -373 11 19
-104 3 171 87 19
-103 -13 289 96 19
119 2 418 20 19
-59 50 279 29 19
-186 6 150 -17 19
125 15 199 53 19
117 -16 349 57 20
-117 64 -230 -48 20
104 114 -345 3 21
259 111 -183 87 22
-143 30 59 -8 23
55 34 -233 -52 24
262 -20 -392 -93 26
-95 -5 -365 0 27
-117 -43 304 168 28
154 8 709 172 30
28 81 498 37 31
-119 84 56 -30 33
173 19 215 49 35
30 -41 573 185 37
-195 34 145 122 39
-9 74 -159 -64 41
103 63 -592 -146 44
-173 -28 -686 -130 46
28 -9 -141 62 48
239 68 472 149 51
-88 -31 543 9 53
-111 -107 -28 -178 56
56 -95 -664 -209 58
-88 -75 -386 -19 60
-177 71 260 55 63
82 -17 -54 -24 65
102 39 -215 -22 68
-193 -59 -320 -117 70
61 30 293 87 72
61 -119 -116 -37 75
-131 -61 -160 -139 77
31 65 365 248 79
213 62 653 198 81
-15 121 416 92 84
-164 -54 -444 -225 86
159 -48 -924 -367 88
14 33 -226 -101 90
-225 -61 412 191 92
117 81 211 107 94
161 22 -413 -131 96
-149 -10 -325 -101 98
-2 -68 228 123 100
147 30 135 54 101
-158 -24 -129 -79 103
-29 23 -502 -244 105
191 -15 -68 12 106
-64 -43 180 88 107
-165 78 170 95 109
124 -24 -43 -37 110
29 75 -149 -67 112
-147 7 -23 -1 113
107 -14 39 15 114
152 54 -53 -69 115
-118 15 21 -66 116
91 133 143 106 117
24 -195 -169 -172 118
-186 -19 5 -13 119
-113 13 12 -40 120
151 11 5 -44 120
184 201 179 265 121
-79 91 58 219 121
290 160 35 272 121
64 37 -117 105 121
-194 16 -73 33 121
127 75 129 41 121
165 24 335 114 121
-251 -11 162 -20 121
-125 -46 27 -37 121
113 -11 -92 -73 120
-231 -38 -79 -89 120
-141 -13 -9 -22 119
156 -10 -44 -30 118
15 31 16 30 117
-107 12 9 29 116
112 -17 -91 -14 115
61 -9 -40 -14 113
-219 -42 -90 -46 112
96 -13 -186 -51 110
128 11 -16 37 109
-141 29 187 91 107
-95 -19 181 21 105
136 -24 -51 -76 104
-152 -37 -128 -55 102
-157 -3 2 62 100
136 13 97 66 97
-11 13 64 21 95
-120 24 -58 -48 93
91 16 50 17 91
118 -5 -35 -8 88
-128 -16 -251 -68 86
73 14 -148 -15 83
235 59 78 66 81
-13 32 -13 6 78
6 11 -64 -17 75
255 37 -16 12 73
13 44 109 31 70
-114 11 101 22 67
127 -28 42 39 65
75 -26 141 46 62
-229 2 263 83 59
85 -24 3 -57 57
129 -5 -298 -81 54
-241 -22 -275 -71 52
33 4 90 15 50
194 3 173 -1 48
-14 55 77 -11 46
-25 55 -81 -4 44
184 38 -90 36 42
11 59 64 79 40
-66 86 88 101 38
182 87 -130 30 36
107 72 -336 6 35
-207 -1 -121 8 33
-11 -52 59 -19 31
9 -107 221 -81 30
-221 -74 -69 -114 28
-32 0 -248 -106 27
180 41 -262 -7 25
-104 47 48 89 24
-81 27 411 135 23
169 24 403 68 22
13 28 319 38 22
-137 -7 -34 -43 21
96 -19 -77 11 21
62 -41 39 -21 21
-205 -26 -54 11 21
41 3 -542 -102 21
125 2 -931 -157 21
-117 29 -159 -15 21
-41 4 658 185 21
185 36 864 130 22
-52 46 183 63 22
-121 23 -307 -52 23
117 15 -248 14 24
17 7 -124 47 25
-149 -37 128 47 26
184 15 -29 -22 27
135 12 174 -15 28
-150 53 -74 -17 30
50 41 229 106 31
105 -2 292 118 33
-86 28 325 54 35
24 63 -152 -5 37
172 59 -386 -43 38
-15 71 13 -46 40
-66 23 257 108 42
163 -6 183 86 44
61 39 55 100 46
-173 -6 -120 -80 49
36 -8 -102 -25 51
135 -5 43 -5 53
-158 -27 -239 -90 55
-64 1 -87 -119 57
196 -3 -9 13 60
-175 -25 -255 -116 62
-81 75 -331 67 65
159 33 111 83 67
-25 19 -789 -245 69
-173 -57 -306 93 72
-49 -158 574 19 74
15 -7 938 293 77
-280 55 1086 186 79
23 -63 772 -21 82
158 -12 788 19 84
-113 62 629 38 87
-8 102 -517 -129 89
264 94 -991 -141 92
-56 -51 -643 -120 94
-144 -132 -563 -172 96
231 -108 -814 -182 98
1 -85 -813 -239 100
-140 93 32 10 102
177 12 55 116 104
116 -75 131 165 106
-126 123 346 183 108
47 85 266 15 109
269 95 289 77 111
-73 -6 -58 -6 112
-7 109 -151 -1 114
155 68 141 38 115
-63 84 56 11 117
-182 -107 -184 -79 118
131 -52 -102 -41 120
-86 -124 -122 -126 121
-285 -116 -165 -134 122
59 -8 -50 -24 123
5 -45 -36 -69 124
-54 127 169 203 125
18 -40 -16 20 126
162 57 40 59 126
-56 84 73 97 126
-118 -158 -96 -101 127
266 135 91 138 127
-50 69 27 99 127
-91 86 -117 55 127
133 34 72 62 126
-46 -34 21 -47 126
-206 34 63 -11 126
21 -82 7 -85 125
190 19 123 59 125
-75 25 123 20 124
147 115 126 101 123
332 91 24 94 122
-43 27 -9 16 121
-83 29 -1 16 120
57 -18 -80 -30 119
-129 -27 -93 -26 118
-295 -45 -51 -40 117
-61 -104 -133 -94 115
-37 -45 -27 -44 113
-239 22 3 3 112
110 -15 -216 -96 110
115 13 -201 -35 108
-197 22 189 141 106
-85 14 288 86 104
139 21 151 21 102
-87 -18 -84 -102 99
40 40 121 105 97
223 31 118 110 95
104 56 -133 27 92
-120 -23 -156 -97 90
37 -22 48 -27 87
141 16 242 49 85
-151 -41 -16 -30 82
98 39 -210 -41 79
202 2 -109 -17 77
-155 -13 -316 -92 74
7 -43 -351 -61 71
277 49 -26 27 69
-26 28 277 32 66
-148 -12 410 43 64
196 12 149 71 61
2 9 56 51 58
-147 4 127 79 56
171 -9 118 9 54
96 -12 -42 -16 51
-120 14 -114 -39 49
-17 -45 -166 -118 47
204 53 -49 26 44
-99 38 -235 -10 42
-35 57 -162 42 40
205 23 13 24 38
-54 38 87 21 36
-171 20 -7 12 34
129 1 -185 -17 32
38 3 23 36 31
-183 11 238 51 29
83 57 131 40 27
179 80 -50 -8 26
-121 55 -49 21 25
-9 20 133 46 23
195 2 251 72 22
-101 1 23 -4 21
-27 30 -236 -33 20
169 32 -228 32 19
-44 -52 -157 -48 19
-177 -74 -97 -80 18
15 -138 -425 -225 18
-33 -92 -263 -134 18
-252 -69 71 49 18
42 -33 205 61 18
139 -25 71 35 18
-128 24 -86 -5 18
12 29 107 -2 18
160 37 8 29 18
-56 39 -84 -22 19
-65 18 -191 -24 19
159 31 37 107 20
-64 -4 211 65 21
-159 43 312 70 22
185 104 230 74 23
67 23 308 1 24
-99 2 -130 -45 26
130 40 -6 -2 27
195 64 -171 43 29
-48 119 -27 8 31
16 112 146 97 33
225 20 26 -16 35
-48 39 259 64 37
49 88 -310 29 39
234 -9 -241 47 41
-3 -37 -300 95 44
-207 -97 887 61 46
8 -101 664 43 48
33 -6 220 -88 51
-148 60 -55 -21 53
57 70 -329 -57 56
121 91 -605 -162 59
-213 -78 -761 -213 61
-101 16 -1106 -206 64
53 -170 -114 67 66
-32 64 152 131 69
-192 -88 754 129 71
125 79 399 68 73
45 63 208 47 76
-254 4 414 71 78
141 -78 205 -79 80
107 61 178 42 83
-129 -28 -414 -109 85
90 -11 -512 -86 87
226 120 134 184 89
-80 42 280 172 91
-29 19 -37 -20 94
192 -11 -313 -131 95
-61 -39 -291 -111 97
-113 -17 -5 46 99
205 16 66 5 101
71 -69 -225 -117 103
-169 9 -218 -78 104
20 -65 -124 -69 106
161 23 -53 -18 107
-103 -52 -53 -2 109
-50 45 -43 -35 110
252 4 73 66 111
-15 147 65 68 113
-115 27 8 9 114
253 151 85 34 115
-19 -22 -18 -39 116
-121 34 113 62 117
106 56 117 89 118
-41 -75 -79 -93 119
-119 116 117 140 120
82 49 46 148 120
280 128 115 160 121
-102 25 15 90 121
-77 -12 -57 -8 121
202 8 -16 25 121
-23 -52 -73 -34 121
-43 8 97 62 121
199 -29 161 51 121
61 52 97 2 121
-107 42 67 44 120
72 64 -2 17 120
15 -10 -38 -22 120
-199 -72 -65 -97 119
-45 -36 -62 -71 118
149 50 33 96 117
-224 -42 -64 -14 116
-196 -43 -55 -12 115
9 -27 -78 -40 114
-130 -13 -54 -28 112
-117 -15 -50 -11 111
195 18 -3 16 109
46 11 -33 0 108
-154 23 -1 17 106
86 22 65 3 104
107 22 82 13 102
-220 -18 -83 -53 100
-43 -9 -40 -27 98
138 -2 39 13 96
-168 -1 203 74 94
-35 0 87 -7 92
201 -7 -14 -9 89
20 4 -94 -48 87
-136 7 -144 -41 84
154 22 -80 24 82
109 5 -65 9 79
-19 37 60 50 76
231 105 92 82 74
253 69 108 59 71
-102 18 23 24 68
-20 -21 -62 -49 65
177 -27 -111 -44 63
-96 -21 -110 -45 60
-102 -29 -147 -52 57
136 -38 -117 -39 55
11 -24 59 5 52
-221 -33 250 34 49
120 -18 320 55 47
51 -29 26 -57 44
-239 -41 -109 -56 42
26 -15 -79 -49 39
200 5 -70 -41 37
-81 62 -65 1 34
30 45 -79 16 32
210 39 -171 19 30
-73 33 -79 32 28
-137 12 1 27 25
147 3 99 18 23
11 29 -110 -24 21
-143 92 -53 87 19
107 40 -24 34 18
93 21 129 55 16
-203 -5 165 21 14
66 35 -73 -19 13
224 61 -224 -8 12
-40 62 -176 48 11
-41 78 294 154 10
248 86 429 133 9
-6 19 177 -20 9
-103 18 -223 -63 9
206 -41 -271 -84 9
7 -22 -6 25 9
-220 -58 -91 -54 9
-54 -101 -270 -82 9
48 -52 -231 -69 9
-196 -30 -283 -21 10
31 18 -51 1 10
217 82 1 49 11
-78 36 22 23 12
-68 15 458 89 12
104 -57 318 30 13
-54 -51 391 14 15
-231 -61 363 -11 16
82 31 -236 -2 17
92 64 -223 -71 18
-175 72 -154 9 20
123 -34 495 16 21
143 -60 294 8 23
-115 -17 -273 -64 25
-28 15 -378 -18 26
179 74 -177 29 28
-35 86 -39 48 30
20 70 -91 42 32
209 58 -291 -90 34
-43 0 -128 0 36
-133 -73 -69 16 39
30 -6 287 -22 41
17 -2 910 211 44
-248 -101 845 45 46
-71 16 464 44 49
115 142 -617 -63 51
-233 41 -395 -125 54
-77 -11 168 98 57
197 21 173 20 59
30 95 -662 -101 62
-50 49 -923 -215 65
224 -15 -359 -4 67
23 9 637 198 70
-86 110 449 224 72
189 69 -41 -13 74
168 55 -73 -51 77
-145 -14 261 89 79
-5 -13 371 93 81
300 42 -377 -65 84
-76 105 -195 99 86
-8 100 344 96 88
296 96 747 341 90
-91 -43 161 -31 92
-126 -52 -349 -146 94
193 -65 -528 -194 96
16 -49 -360 -178 98
-247 -60 -239 -103 99
62 -125 -203 -120 101
80 -37 -111 -26 103
-260 -123 -177 -122 104
-11 -53 -157 -67 106
228 -29 -49 -2 107
-104 60 -29 -19 109
-97 65 -32 -11 110
202 47 -6 1 111
-45 -18 22 16 112
-249 -84 -68 -109 113
174 55 91 1 115
128 122 134 139 116
-182 93 108 171 117
63 57 -1 23 117
203 -115 -49 -80 118
-64 47 118 43 119
50 43 47 25 120
135 -50 -89 -109 120
-33 105 133 195 120
-88 156 139 200 121
263 180 181 272 121
80 129 90 152 121
-199 -36 -19 -21 121
4 -21 -48 -56 121
50 -8 -41 -50 121
-337 -143 -139 -198 120
-17 -66 -103 -94 120
91 -88 -97 -80 120
-173 -55 -42 -21 119
-55 -32 50 -3 118
180 -31 -23 -51 118
-120 -45 -159 -80 117
-376 -66 -98 -70 116
73 0 112 14 115
-138 -31 128 7 114
-219 -3 87 27 113
135 -11 -99 -25 111
168 14 -53 23 110
-152 15 -23 19 109
87 12 -37 10 107
230 14 -49 -3 106
-143 -2 -111 -46 104
-88 22 -48 2 102
255 33 83 54 100
20 60 115 78 98
-78 58 9 38 96
250 59 -81 8 94
64 9 51 -3 92
-167 19 153 31 90
131 24 -7 7 87
69 -1 -165 -33 85
-119 9 -8 6 83
22 -24 79 45 80
206 -22 -304 -77 78
-53 13 -235 -66 75
-59 18 59 -16 73
169 -5 472 90 70
-55 -37 357 61 67
-153 -39 63 19 65
158 8 -67 -27 63
122 53 -47 12 60
-86 23 -140 -23 58
228 148 -27 94 56
173 62 -9 30 54
-67 101 115 89 52
-45 -4 -35 -32 50
158 12 -51 -1 49
-203 -99 -243 -110 47
-170 -80 -284 -122 45
21 -114 -130 -157 43
-17 36 219 51 41
-90 71 322 102 39
207 94 197 70 38
89 81 29 65 36
-83 174 80 127 34
145 116 45 103 33
225 114 8 95 31
-114 34 -145 -6 29
-57 -27 -369 -63 28
67 -80 -341 -63 26
-67 -73 109 -22 25
-146 -49 362 7 24
140 -27 287 -19 23
-2 -32 -304 -95 22
-167 25 -584 -62 20
107 6 -331 5 20
111 0 237 96 19
-131 -29 423 26 18
-3 -38 289 -37 18
116 -5 89 -35 17
-136 -9 44 -8 17
-96 -16 125 67 17
150 -24 -168 -19 16
-69 15 -523 -19 16
-138 96 -439 -48 17
127 28 -252 -90 17
99 -43 -65 -61 17
-121 -78 167 32 17
72 -30 223 133 17
93 20 282 69 18
-170 27 -4 -23 19
13 36 -183 -11 19
186 38 631 126 20
-56 -17 538 54 21
-46 75 403 23 22
173 109 -361 18 24
-43 113 -496 -15 25
-75 21 -214 -12 27
92 -11 -320 -42 28
86 4 -578 -90 30
-99 0 -179 -34 31
101 -19 138 3 33
215 49 -73 -35 35
-138 80 485 159 36
65 36 578 208 38
195 63 708 219 40
49 105 175 99 42
33 98 -421 -20 45
276 -8 -637 -127 47
22 -59 228 45 49
-218 -8 576 72 51
-19 59 -136 -33 53
-36 89 -555 -118 56
-329 -17 -361 -111 58
-126 -120 528 58 60
45 -110 795 108 63
-220 -87 -491 -184 65
-107 -59 -534 -229 67
155 -16 -170 -29 70
-89 -9 314 57 72
-293 28 266 104 74
14 27 -111 -13 76
-128 80 -430 -104 79
-269 -105 -859 -236 81
108 -25 -285 -135 83
143 -73 435 190 85
-53 141 795 278 87
193 23 77 -4 89
352 83 -512 -199 91
-3 21 -19 42 93
53 103 527 307 94
328 82 473 211 96
22 30 53 28 98
-61 83 -184 -54 100
204 23 -301 -137 101
18 -47 -298 -127 103
-205 -85 -275 -133 105
65 -31 -209 -103 106
71 -125 -177 -113 107
-184 -65 -100 -78 109
-32 -198 -113 -153 110
77 -39 -97 -131 111
-103 -1 -27 3 113
-51 187 -1 78 114
190 95 30 109 115
-40 4 17 68 116
-137 102 45 72 117
225 161 174 182 117
-36 -56 -1 -61 118
-136 93 102 116 119
133 107 136 181 119
198 97 78 152 119
-156 37 55 74 119
-34 -33 -21 -44 119
116 -72 -69 -74 119
-184 -63 -129 -117 119
-145 -41 -17 -54 119
227 15 94 35 119
51 49 141 72 118
-107 46 47 17 118
194 -21 -79 -59 117
41 -11 -2 7 116
-79 -29 38 14 115
12 -73 -67 -68 115
175 -39 -86 -54 113
-186 -21 -27 -20 112
-64 18 56 59 111
138 -1 -6 2 110
-129 -19 -41 0 108
-146 20 -1 21 107
126 16 0 7 105
-13 8 -59 -21 104
-236 -17 -225 -95 102
24 -12 -93 -23 100
16 17 60 43 98
-224 41 136 77 96
-32 22 135 68 94
159 23 167 85 92
-63 57 201 81 90
13 72 162 78 87
269 43 -56 -11 85
-60 -30 -140 -60 83
-113 -9 -54 -23 81
203 4 2 -3 78
141 36 -8 26 76
-5 87 -176 31 74
138 15 -267 -49 71
154 2 -149 -17 69
-211 -24 16 -18 66
0 -21 137 -21 64
175 -30 219 38 61
-104 6 203 40 59
-101 -34 -127 -34 56
110 -34 -223 -89 54
-86 -61 -78 -87 52
-196 -65 274 19 50
152 41 299 69 47
84 19 21 18 45
-118 44 -151 -46 43
35 11 -96 -13 41
153 22 -48 9 40
-122 -1 -229 -32 38
-15 18 -231 -25 36
192 20 -283 -17 34
-76 1 -205 -19 33
-38 68 189 93 31
239 95 215 91 30
150 104 325 92 28
-82 56 -39 -9 27
217 77 -305 -10 26
133 50 -261 49 25
-138 52 227 146 24
40 -2 555 119 23
6 -64 429 -19 22
-304 -33 -5 -84 22
3 -10 -109 -78 21
135 -56 -341 -73 21
-54 -47 -320 -118 21
-89 -129 -320 -83 21
2 -98 -94 -11 21
-49 -19 68 7 21
-109 49 32 -35 21
111 88 -185 -35 22
117 66 -126 3 22
-98 22 -129 88 23
39 45 309 81 23
151 -43 429 66 24
-49 29 433 80 25
-33 18 -37 4 27
187 66 -159 -7 28
-55 -20 96 8 29
-145 -21 -27 -23 30
123 97 10 59 32
116 143 -323 115 34
-132 121 183 103 35
102 52 579 187 37
191 21 552 84 39
-138 48 -64 -84 41
34 80 -405 -20 43
174 50 -143 69 45
-99 -25 96 113 47
-38 87 -2 54 49
210 118 -109 -5 52
-36 63 195 68 54
-210 -65 277 -28 56
39 -101 87 -189 58
-33 -106 -540 -269 61
-227 -25 -1309 -286 63
59 8 -434 15 65
109 -90 -202 113 67
-187 -169 446 -38 69
-117 -202 364 -18 72
117 -24 278 1 74
-99 104 421 88 76
16 34 195 88 78
245 -68 220 -58 80
53 11 147 -96 82
-215 -26 -193 -113 85
105 73 -491 -55 87
47 -33 157 167 89
-229 -13 555 179 91
20 8 261 76 93
153 110 -389 -166 95
-85 81 -549 -135 97
-15 -65 -121 29 99
263 121 -49 19 101
-37 -49 -424 -178 103
-79 52 -219 -64 105
183 -31 247 171 106
-23 -8 181 98 108
-195 18 25 25 110
142 88 -146 -49 111
110 44 -65 -13 112
-170 -91 -25 -21 114
82 65 -38 -6 115
216 38 5 35 116
-147 91 52 56 118
-95 -65 -58 -91 119
195 -53 -32 -105 120
51 64 155 125 121
-81 55 77 48 122
221 -28 13 -66 123
6 -47 -77 -39 123
-118 158 144 197 124
153 45 46 185 124
320 77 107 182 124
-114 77 58 62 124
9 44 25 65 124
243 83 6 49 124
-151 -75 -75 -71 124
-104 57 111 62 124
159 39 79 51 123
-88 -9 44 -7 123
-265 -68 -59 -84 122
-8 -56 -37 -47 121
41 -1 -57 -21 121
-223 -49 -126 -73 120
11 -55 -31 -40 119
199 -6 55 -11 118
-217 -29 56 3 116
-98 53 36 48 115
33 56 -1 59 114
-192 64 81 103 112
-256 25 13 28 111
178 18 -56 -25 109
-34 -17 -60 -35 107
-256 -87 -154 -109 105
148 -2 -283 -108 103
127 20 -15 27 101
-169 9 304 128 99
-11 -1 297 96 97
158 50 114 51 95
-197 -11 -54 -20 92
-31 20 -55 8 90
311 26 83 41 88
63 34 -92 -9 85
-53 -19 -110 -60 83
289 -18 25 5 80
85 17 -243 -41 78
-113 35 -358 -63 75
205 11 7 13 73
135 -35 413 97 70
-157 -1 381 46 68
1 -32 -52 -46 65
200 7 -258 -55 63
-84 49 22 76 60
-13 51 105 35 58
233 37 80 15 56
-44 -9 -33 -35 53
-142 -11 15 -23 51
189 29 -24 15 49
59 28 -1 7 47
-158 32 -125 -10 45
127 33 -146 -9 43
73 28 -200 -17 41
-175 40 -49 34 38
-50 -18 98 31 36
114 -69 -7 -68 35
-152 -32 -51 -56 33
-101 13 -295 -17 31
243 121 122 141 29
28 84 219 109 27
-85 79 368 97 26
185 43 166 20 24
63 15 -39 69 23
-221 0 90 10 22
23 -11 -103 -61 21
71 -92 -410 -164 20
-221 -66 -455 -123 19
-74 -82 -88 -70 19
135 -51 168 -29 18
-86 -50 179 -55 18
-129 -43 -105 -86 18
116 -40 -193 3 18
-19 19 -160 40 18
-140 -4 -326 12 18
151 16 47 -22 18
99 -28 25 -3 18
-167 19 243 20 19
24 40 25 33 19
166 99 -1 67 20
-76 57 86 139 21
1 61 622 134 22
191 42 177 6 23
-16 45 0 -69 25
-119 15 -360 -45 26
186 15 -211 32 28
42 61 -37 22 30
-69 84 -162 13 31
164 113 278 50 33
194 113 258 101 35
-124 18 320 105 37
54 2 -27 48 39
159 13 -271 -25 41
-152 23 -235 -50 44
-11 6 -24 -17 46
170 -26 -213 -23 48
-13 -25 257 43 51
-93 131 112 175 53
20 -37 267 110 55
-75 -57 114 -6 58
-260 -119 134 -92 60
-10 -62 -353 -225 63
34 -20 -208 -166 65
-233 -13 -403 -167 68
-35 -23 55 77 70
135 24 586 154 73
-136 -113 -168 -39 75
-71 55 25 -20 78
209 54 -436 -156 80
16 -5 200 17 83
-150 6 361 152 85
248 163 381 115 87
88 136 -75 69 89
-111 76 -377 -73 91
119 -63 315 63 94
199 41 126 64 96
-168 -10 -58 -35 98
24 -15 -274 -98 100
189 -16 -172 -29 102
-128 -55 -131 -80 104
-78 -58 -85 -21 106
270 38 -55 19 107
21 45 -1 38 109
-131 99 -91 -10 110
145 -23 -94 -16 112
-2 -114 -97 -75 113
-177 41 -16 3 115
-32 -33 -63 -59 116
15 -28 -91 -113 117
-162 -19 74 95 118
79 246 205 259 120
278 154 128 133 121
34 82 55 -12 121
-135 -53 -24 -76 122
140 -9 7 13 123
158 192 152 283 123
-105 40 24 136 124
214 79 0 74 124
135 23 48 66 124
-180 55 91 40 124
47 17 77 19 123
123 -64 -77 -88 123
-267 -146 -157 -171 123
-72 -14 -9 -9 123
129 -36 -73 -59 122
-150 -15 -44 -23 122
-64 -31 -62 -36 121
128 -76 -84 -65 120
190 -7 29 13 119
-102 -44 -3 -38 118
-12 -73 -49 -83 117
-3 5 6 14 116
-476 -28 -113 -47 115
-249 -9 -9 5 113
62 42 39 40 112
-142 8 -88 -36 111
-46 30 -43 26 109
184 -12 -11 35 107
-48 -6 65 33 105
-152 -43 -190 -90 104
211 85 77 80 102
38 61 316 200 100
-42 94 301 121 98
141 60 162 54 95
144 -15 -89 -59 93
-148 -5 -35 -23 91
-44 -16 -67 -37 89
172 -33 -239 -62 86
-9 5 -251 -59 84
-57 -38 -210 -56 82
170 10 -181 -93 79
77 -29 219 55 77
-42 74 296 110 74
218 54 203 62 72
171 39 86 29 69
-129 -43 -74 -60 67
56 -23 -10 -21 65
147 42 90 49 62
-89 51 13 47 60
-65 8 -112 37 57
175 13 -233 -9 55
-92 -23 -353 -91 53
-163 -18 -197 -63 51
97 -9 59 -21 49
20 5 273 28 46
-156 -5 239 -14 44
112 30 262 69 42
132 35 91 40 40
-137 40 -49 1 38
-21 27 -160 -19 37
131 12 -133 -39 35
-125 16 -15 15 34
-67 3 121 41 33
138 -47 -201 -80 31
-67 -12 -464 -99 30
-152 46 -320 -61 29
81 37 85 59 29
136 37 512 165 28
-147 -7 336 125 27
120 -30 14 -2 27
108 4 -109 -1 27
-181 -22 -59 -31 27
-57 -19 -64 -74 27
148 -33 -157 -71 27
-121 41 -289 -52 27
-54 -12 44 51 28
169 23 369 147 28
-77 25 -73 80 29
-96 24 -120 -34 30
149 13 -267 -35 30
163 75 454 60 32
-5 212 190 85 33
171 225 -135 64 34
221 64 107 215 35
-98 -82 177 71 36
-49 -69 -134 -25 38
78 -57 -176 -160 39
-165 -2 -172 -58 41
-70 16 313 96 43
163 26 253 40 44
56 37 -14 25 46
-111 25 -99 -84 48
206 97 248 117 50
48 17 -88 -53 52
-216 -27 -235 -95 55
-60 -2 41 83 57
30 -32 335 169 59
-142 47 -623 -68 61
-27 5 -1004 -323 63
106 -48 -1113 -238 66
-179 -135 504 -27 68
-184 -104 963 243 70
81 -13 853 137 72
56 83 -376 -51 75
-113 115 -13 -51 77
74 58 237 67 79
126 62 104 171 81
-238 -64 143 8 83
49 -25 -343 -73 86
157 -11 -71 -144 88
0 106 470 148 90
-1 10 104 9 92
209 -12 -371 -81 94
-88 -104 -498 -202 96
-112 29 -286 -103 98
135 -46 -145 -12 100
66 -89 -233 0 102
-133 -14 -217 -73 104
85 25 129 85 106
150 89 257 99 107
-132 8 14 16 109
0 20 -169 -41 110
157 39 -75 -13 112
-109 -7 -54 -23 113
-57 25 -40 -12 115
183 37 29 31 116
26 105 104 73 117
-391 -305 -224 -267 118
344 289 283 242 119
-133 -122 -130 -181 120
-113 137 137 117 121
55 49 -11 -1 122
61 -44 -27 35 123
-21 104 81 177 123
76 106 141 159 124
223 125 75 104 124
-31 49 37 59 124
-138 -95 -88 -44 124
163 2 17 53 124
-33 -28 -35 -37 123
-217 -121 -77 -105 123
37 -70 -14 -49 123
106 8 41 8 122
-174 31 23 10 122
145 42 59 47 121
206 27 26 25 120
-81 10 -53 -1 119
-11 1 -59 -23 118
227 -1 109 61 117
14 16 111 36 116
-148 -5 -27 -34 115
137 31 -38 18 113
-38 1 43 33 112
-304 8 101 57 110
64 -2 -5 5 109
43 -13 -85 -44 107
-270 -37 -66 -37 105
-113 -67 -152 -89 103
114 9 -104 -34 101
-195 -25 -85 -25 99
-126 7 -48 4 97
126 -5 52 34 95
-47 11 131 27 93
-168 24 86 37 91
219 6 -38 -16 88
52 52 -51 -23 86
-93 3 107 19 83
181 26 218 123 81
183 64 -2 32 78
-92 10 -79 8 76
71 12 -38 -21 73
216 -15 -99 -30 71
-9 29 -219 -47 69
15 31 15 28 66
236 15 132 47 64
39 49 20 13 61
-168 15 -209 -67 59
112 -48 -5 -50 57
-24 -99 247 -11 54
-235 -44 141 -7 52
38 -4 -122 -40 50
127 39 -74 14 47
-141 31 37 43 45
-21 49 41 3 43
235 34 -127 5 41
-97 5 -140 -11 39
-55 78 -10 68 37
233 65 19 42 35
14 56 171 18 33
-63 71 67 50 31
160 54 58 50 30
72 20 -61 4 28
-147 11 -69 24 27
24 -10 23 11 25
145 56 2 58 24
-141 7 48 -4 23
-49 8 36 32 22
175 40 166 57 21
-31 18 68 79 20
-95 0 -253 -60 20
130 -31 -463 -87 19
-24 -57 -221 -76 19
-207 -25 338 77 19
-23 -64 329 -5 19
122 -53 -79 -77 19
-197 -30 -403 -83 19
-14 -43 -250 -82 19
54 -23 227 72 19
-101 -11 81 -17 19
-80 9 -113 60 20
219 16 -485 -17 21
-26 74 -167 29 21
-21 52 223 52 22
115 45 623 23 23
44 -25 679 20 24
-120 37 -31 17 25
77 11 -439 1 27
200 28 -117 13 28
-12 86 506 114 30
114 189 -29 156 31
256 89 252 70 33
-42 53 429 214 35
-20 -3 315 38 37
171 75 -172 19 39
16 65 -414 -59 41
-136 -23 -385 -121 43
118 -41 76 -81 46
-2 -51 -243 -157 48
-221 -15 -84 -24 51
39 -39 403 143 53
113 -6 236 13 56
-257 -44 109 -36 58
-137 -80 -384 -75 60
93 -22 -286 -40 63
-142 19 -525 -135 65
-46 23 -554 -198 68
128 -53 -311 -140 70
-32 -52 359 95 72
-221 -22 850 239 75
57 15 447 96 77
129 57 -287 -56 79
-97 -1 -587 -177 81
103 36 208 79 83
202 15 426 125 85
-51 37 241 145 88
-33 31 115 133 90
215 64 21 71 92
-46 -42 -310 -127 94
-139 -77 -418 -204 95
155 -19 7 37 97
7 -84 1 9 99
-177 133 25 16 101
157 80 -181 -75 103
158 99 -179 -74 104
-85 45 -17 35 106
111 38 -12 15 107
194 35 -16 9 109
-139 -64 -1 -1 110
-98 -19 -12 -9 111
141 -85 -72 -62 113
-111 33 5 -5 114
-322 -46 -83 -111 115
-21 -162 -151 -222 116
261 295 331 193 117
-225 -34 3 4 118
183 63 96 119 119
174 -3 -1 80 119
-113 21 41 23 120
100 217 165 266 120
219 51 10 111 121
27 77 77 158 121
-93 15 31 37 121
174 102 64 72 121
13 -8 -16 12 121
-151 -27 -61 -62 120
113 -28 -41 -53 120
90 -15 -92 -57 119
-119 -29 -9 -5 119
102 49 135 64 118
74 -27 58 -11 117
-191 16 -27 -9 116
-117 -51 -173 -88 115
-82 -33 14 21 114
-244 9 43 -17 112
-301 -17 80 15 111
152 6 45 14 109
116 0 -21 9 107
-155 -27 -13 1 105
172 8 -65 -21 104
89 -14 -113 -36 102
-171 -45 -140 -59 99
-39 -44 -139 -84 97
86 -22 50 0 95
-205 -8 -63 8 92
-63 9 -11 30 90
212 50 19 81 87
41 90 49 56 85
-43 77 32 27 82
271 93 151 121 79
152 -8 241 83 76
-142 -21 320 77 74
186 -40 21 -59 71
102 -18 -251 -93 68
-171 24 -269 -111 65
66 28 -17 5 62
228 16 102 45 60
-61 -8 25 4 57
-115 -61 -169 -67 55
173 -44 -336 -111 52
-107 -41 -144 -72 50
-178 -5 -150 -56 48
171 -7 -133 -57 46
58 37 36 2 44
-147 57 216 82 42
112 50 261 76 40
106 -11 102 -25 38
-176 15 -121 -38 36
45 73 16 32 34
207 68 85 69 32
-113 20 -103 29 31
-114 43 -207 -21 29
172 44 -75 35 28
-5 71 126 84 26
-144 -53 121 13 25
169 23 -25 18 24
91 38 -200 8 23
-134 52 -205 -7 23
113 1 120 64 22
103 9 430 48 22
-148 23 350 46 21
-34 -33 -56 -65 21
128 -54 -443 -105 21
-128 -32 -487 -93 22
-158 -56 53 -10 22
54 -67 385 73 22
-80 -46 241 -19 22
-134 -21 -31 -66 23
96 91 -349 -1 24
109 45 -286 45 25
-179 -41 94 124 26
90 -21 -67 -96 27
180 61 -85 -38 28
-95 8 -24 95 30
-18 18 26 87 31
110 -85 436 160 33
62 78 623 121 34
-59 166 767 185 36
203 146 43 31 38
27 58 186 -37 40
-149 46 4 -51 42
105 65 38 6 44
142 70 -153 -70 47
-120 -18 -718 -190 49
-26 -33 -340 -90 52
75 -39 268 158 55
-131 -45 490 103 57
-89 29 338 96 60
115 64 -309 -129 62
-70 27 -847 -179 65
-185 -60 -692 -143 67
84 -68 -209 -150 70
34 -41 419 11 72
-203 -55 93 -72 75
183 -17 -543 82 77
189 122 -315 22 79
-132 -6 397 126 81
-45 -6 864 105 84
325 91 720 261 86
-105 100 -198 -29 88
-31 -19 -505 -225 90
197 -189 -331 -185 92
-124 -69 226 51 94
-235 10 154 68 96
177 63 31 104 98
49 -48 -217 -36 100
-240 -97 -235 -89 102
64 -8 -32 -63 103
127 -1 -38 -27 105
-161 -27 -161 -55 107
-47 -11 -153 -34 108
253 83 -21 49 110
-86 41 -132 -60 111
-78 11 -65 -7 112
207 -3 -13 -2 114
-60 -12 -48 -35 115
-155 16 11 23 116
100 8 1 -9 117
-92 -95 -85 -124 118
-215 -53 38 -44 119
56 108 116 46 120
68 -89 -63 -112 121
-82 85 70 -2 122
161 216 180 294 122
364 273 297 387 123
156 225 147 285 123
-83 -46 -77 11 123
117 -61 -55 -24 124
-25 -9 -32 16 124
-238 -146 -147 -141 123
86 -96 -69 -153 123
25 -71 -61 -115 123
-114 65 108 86 123
86 49 66 53 122
314 149 166 134 122
-94 -26 -13 -13 121
-37 -48 -62 -50 120
367 32 23 58 120
-118 -33 -92 -25 119
-214 -12 -31 -8 118
77 24 31 61 116
-142 2 19 3 115
-443 0 -6 -34 114
-183 -34 -9 -23 112
-46 29 27 23 110
-181 31 33 9 109
122 76 73 61 107
340 35 40 57 105
-76 22 27 33 103
-129 -45 -47 -30 101
201 -14 -79 -45 99
-93 -37 -51 -42 97
-255 -38 -15 -29 94
114 -29 -42 -31 92
41 -37 -158 -63 89
-189 -27 -190 -73 87
137 -2 -19 21 84
207 41 214 87 82
-13 127 365 214 79
215 153 143 162 76
283 51 -40 27 73
2 -6 27 -1 71
-125 -29 -76 -65 68
246 -12 -99 -63 65
60 7 -1 -31 63
-171 -22 75 -44 60
82 -69 -2 -64 58
28 -76 -277 -122 55
-209 -30 -303 -75 53
30 -18 45 8 50
145 -23 134 3 48
-169 -36 -38 -66 45
-51 0 -69 -35 43
133 33 -170 -2 41
12 51 61 69 39
-154 27 145 54 37
153 7 86 -15 35
-6 55 35 10 33
-273 25 -243 -89 31
128 61 -83 12 29
196 83 212 131 27
-47 115 415 169 26
121 96 253 100 24
172 26 -32 -11 23
-156 5 -262 -61 22
-118 1 -295 -31 21
189 -35 -249 -33 19
-58 -35 -126 -28 18
-107 -1 -191 19 18
187 37 60 1 17
57 22 14 -26 16
-205 -8 169 -22 16
37 -38 90 -5 15
63 -43 106 67 15
-219 -26 -122 -22 15
13 31 -280 -18 15
115 -35 152 23 15
-51 40 418 107 15
-81 28 456 12 15
193 51 -239 -92 16
-80 -10 -549 -119 16
-95 -34 -344 22 17
141 31 153 133 18
162 139 -149 90 19
-20 75 219 129 20
59 43 464 92 21
184 73 232 94 22
-127 69 20 -42 23
-26 15 -17 16 25
167 9 516 146 26
-133 15 -88 100 28
-61 -1 -351 5 29
109 -19 -388 -92 31
-24 -22 -53 -24 33
-78 24 407 -1 35
162 93 316 48 37
163 87 318 61 39
-150 34 143 113 41
56 14 290 94 44
89 -20 -392 -37 46
-59 -55 -295 -200 48
-1 -49 -111 -24 51
248 -32 16 -28 53
-134 -56 198 14 55
-231 -137 -214 -54 58
-1 -50 -24 -68 60
-136 -33 -315 -131 62
-153 57 -1065 -295 65
136 -62 -1097 -111 67
69 -37 224 144 69
-69 -13 1284 358 71
-48 -12 609 -68 74
108 98 73 -92 76
-357 24 127 63 78
-370 76 623 278 80
-69 55 168 203 82
-248 -103 -492 -228 85
-100 48 -446 -215 87
222 17 -95 -58 89
225 33 -69 -1 91
-7 -20 -161 -46 93
206 -45 41 79 95
290 163 23 70 97
-15 51 -175 -13 99
116 -21 -222 -81 100
222 -6 -170 -108 102
3 15 -75 0 104
81 133 27 108 105
401 152 127 156 107
15 43 -32 -24 108
-184 -30 -44 -69 110
145 -17 -34 -36 111
48 54 83 104 112
-190 14 29 93 114
70 -25 -74 -81 115
-59 -241 -188 -296 116
-312 -22 -62 -102 117
48 102 174 239 118
137 97 27 106 119
102 205 227 235 120
119 134 88 25 120
411 208 269 224 120
147 149 146 233 121
-208 -43 -16 15 121
87 -60 -95 -65 121
43 -202 -151 -197 121
70 244 245 280 121
-41 7 -13 -7 120
125 97 25 96 120
-409 -202 -219 -213 120
-289 -161 -61 -123 119
-67 -147 -65 -145 119
-131 -85 -36 -96 118
-299 -119 -130 -121 117
93 -72 -118 -105 116
49 4 13 29 115
-371 -1 -13 15 114
-79 9 -84 18 112
-72 -1 -144 6 111
-217 11 49 48 110
79 45 103 41 108
326 41 97 48 107
-99 -16 -43 -43 105
-126 -40 -173 -93 103
303 33 -69 24 101
54 54 105 79 99
-76 39 188 78 97
208 53 151 66 95
96 52 100 82 92
-215 -4 -68 -29 90
85 -45 -32 -33 87
107 2 -155 -20 85
-57 55 -155 15 82
48 13 45 80 79
297 13 194 41 77
-78 2 -161 -52 74
-77 35 -258 -131 71
293 -34 -147 -10 68
91 88 129 89 65
-16 83 311 213 62
292 104 351 174 59
83 1 193 35 56
-221 4 48 -18 53
83 -16 -164 -76 51
96 -40 -27 -62 48
-207 -92 35 -86 45
-33 -35 -61 -57 43
118 -6 -313 -93 41
-104 -6 -253 -46 38
-178 -86 -180 -130 36
178 6 49 25 34
65 148 179 113 32
-62 169 -5 127 30
223 186 73 173 28
146 83 42 111 27
-173 49 80 61 25
62 12 27 -7 23
223 36 56 4 22
-176 15 121 11 21
-66 0 188 39 20
131 -22 46 -14 19
-106 -13 67 38 18
-187 -43 104 -17 17
145 -31 136 -7 17
-17 -55 -114 -125 17
-277 -100 -216 -127 17
71 -66 -255 -107 17
19 -76 -183 -27 17
-112 30 -160 18 17
41 10 -564 -33 17
130 26 -306 20 18
-92 31 219 144 18
-56 3 650 47 19
224 36 345 52 20
88 131 -149 39 21
-70 136 -158 74 22
126 51 205 101 23
33 -61 478 -79 24
-156 -8 17 -1 26
68 89 -161 -22 27
222 152 -299 53 29
-117 -13 -42 35 30
-6 40 396 184 32
181 -46 214 15 34
-113 11 53 4 36
-113 -33 16 -96 38
152 -16 -53 -2 40
-33 -3 268 79 42
-101 -9 -26 -25 44
187 44 -65 -37 46
74 2 -267 -76 48
-144 36 -47 49 51
87 31 234 84 53
221 98 -125 75 55
-165 35 41 -9 57
-29 26 -9 70 60
75 -22 132 -69 62
-111 -49 -203 -129 64
-169 -64 -467 -215 66
133 -60 -176 -121 68
-35 -23 -294 134 71
-188 -7 194 109 73
90 33 295 179 75
52 1 495 -49 77
-257 -107 2 -221 79
4 -57 -551 -211 81
165 -26 -158 63 83
-32 124 258 161 85
52 86 410 100 87
278 87 9 -11 88
-29 9 -149 -14 90
-154 -14 -21 5 92
148 0 73 13 94
59 31 -261 -57 95
-193 -60 -524 -234 97
112 -16 79 36 98
98 -12 514 249 100
-210 -66 -293 -159 101
16 -46 -363 -59 102
141 3 -5 22 104
-129 0 333 121 105
-9 77 325 186 106
206 -17 -296 -145 107
-30 32 -196 -60 109
-216 -41 -228 -141 110
183 105 90 67 111
52 39 104 57 112
-170 24 243 125 113
101 31 10 -21 113
74 -31 -259 -144 114
-263 -41 -104 -40 115
71 58 55 75 116
82 -92 -157 -116 116
-79 97 53 -14 117
-39 -21 55 -46 117
285 69 64 111 118
18 -27 -96 -43 118
-49 43 -15 15 118
213 30 21 77 119
72 -53 -6 -12 119
1 135 136 217 119
51 83 27 6 119
132 62 29 8 119
-249 -59 -31 11 119
-162 -10 -35 43 118
115 25 18 25 118
-110 -4 -1 -13 118
-203 -72 -60 -77 117
111 -25 -55 -35 117
-33 -17 -47 -31 116
-261 -10 33 3 115
-15 16 82 33 114
-37 41 69 47 113
-315 -8 -32 -22 112
-47 -18 -76 -44 111
144 -27 -54 -34 110
-101 -34 -177 -99 108
56 9 -65 8 107
277 -1 101 91 105
-7 11 173 69 104
-95 4 154 52 102
200 -7 -9 -30 101
74 1 -96 -34 99
-171 -5 -118 -47 97
32 -2 -41 -15 95
143 18 78 67 93
-135 30 99 77 91
105 24 4 27 89
251 39 -205 -15 87
-79 3 -164 -13 84
-33 22 -202 -31 82
253 38 33 -43 80
7 33 294 78 77
-104 39 446 171 75
159 -14 238 91 72
27 -14 -135 -58 70
-219 -40 -228 -101 67
93 -13 -145 -71 65
176 -19 -72 35 62
-113 19 55 25 60
41 24 81 9 58
186 32 -12 -10 56
-142 12 -245 -59 53
-129 6 -136 -28 51
159 -17 17 -23 49
24 51 258 29 47
-129 16 143 -3 45
190 88 -67 25 43
153 92 -115 50 41
-136 39 -127 34 39
79 24 95 35 37
130 25 243 59 35
-155 -27 178 -28 33
-55 7 35 -28 32
191 42 -106 -1 30
-106 8 -212 -11 29
-116 -1 -166 3 27
123 -40 -110 -45 26
0 -23 51 0 25
-146 1 -95 -35 24
122 5 -98 -17 23
64 -4 -168 -22 22
-201 7 -127 6 21
28 2 -73 30 20
148 4 225 81 20
-79 33 459 107 19
-48 16 543 92 19
163 -7 117 -45 19
-79 -22 -309 -111 19
-182 -15 -421 -69 19
49 -26 -335 -76 19
0 -1 -163 -27 19
-199 -11 -217 -9 19
139 27 -31 41 19
169 42 84 81 19
-67 68 261 41 20
-4 61 120 64 20
143 56 -47 66 20
-97 0 109 78 21
2 57 -256 -29 22
190 35 266 127 22
-21 16 183 36 23
-166 -42 425 15 24
79 19 272 11 25
70 11 -154 -54 26
-147 -9 -353 -5 27
-20 -74 -165 56 29
202 47 483 81 30
-185 19 547 31 32
50 74 166 -4 33
194 75 -161 -105 35
23 81 -498 4 37
-62 36 -207 -41 39
218 10 -216 59 41
-44 -46 193 -24 44
-187 -38 221 151 46
84 28 381 66 48
90 35 -301 -103 50
-183 10 75 -10 53
-17 -16 -14 10 55
87 -52 -314 -1 57
-117 14 -10 -7 60
-5 1 -61 -121 62
242 33 -257 -59 64
26 30 -304 -16 67
-94 14 -138 -44 69
144 -59 137 90 71
-57 -51 558 167 74
-201 18 201 14 76
79 37 184 -24 78
-28 -6 313 27 80
-265 -114 -147 -110 82
-61 -8 -368 -64 85
185 37 -138 14 87
-129 48 295 101 89
15 -8 -96 -56 91
177 78 -503 -200 93
3 57 -10 62 95
-34 100 424 218 97
223 -34 244 101 99
108 47 -282 -71 101
-85 -9 -547 -240 102
245 169 60 105 104
125 95 207 179 106
-149 14 107 100 107
2 1 -56 -35 109
126 4 -183 -103 110
-167 45 -67 -22 111
-144 -101 -82 -63 113
51 -186 -199 -176 114
-74 72 11 34 115
-139 77 36 63 116
235 54 47 47 118
305 73 55 51 119
20 -63 -14 -65 120
89 -39 2 -55 121
79 25 19 -13 121
-275 61 139 50 122
-325 -33 -7 32 123
93 106 154 187 123
-81 155 133 201 123
-115 78 6 125 124
264 21 -45 56 124
48 -87 -81 -37 124
-90 13 -8 -19 123
222 63 30 37 123
148 40 99 75 123
-156 29 61 40 123
-71 -95 -43 -78 122
56 -80 -134 -109 122
-164 -26 -41 -32 121
-108 -30 -32 -51 120
182 -8 19 -43 119
-53 -30 -61 -69 118
-112 16 -55 5 117
-142 56 99 118 116
-178 41 40 66 115
-344 3 -38 12 113
-34 -23 35 21 112
196 -60 -35 -87 110
-188 -117 -127 -152 109
-10 -110 -357 -269 107
226 -30 6 36 105
-29 -27 163 53 103
-8 24 265 135 101
234 2 -47 -24 99
-45 -60 -221 -111 97
-114 -15 -71 -23 95
139 -27 -128 -55 93
49 -1 -39 -12 91
-113 25 102 43 88
214 116 122 137 86
257 187 -6 127 83
-125 78 -167 5 81
72 57 7 17 78
21 -165 21 -94 76
-121 -16 -139 -105 73
-110 -96 -99 -98 70
237 55 191 58 68
38 50 389 200 65
-62 56 351 200 62
199 35 81 41 60
98 35 -15 22 57
-187 10 -76 -47 55
-2 -51 -187 -85 53
90 -24 -424 -143 51
-119 26 -292 -51 49
45 92 -39 56 47
189 -1 174 9 45
-134 -37 77 -54 43
-153 -25 -24 -62 41
151 -15 -184 -39 39
-22 -10 -87 -10 37
-171 -7 -8 14 35
65 -5 -6 17 34
41 -1 103 4 32
-153 -10 -9 -47 31
10 -18 -101 -75 29
90 -16 37 -21 28
-204 -35 133 -26 27
-113 -54 204 -15 26
135 -28 16 -40 25
-78 -4 -179 -20 24
-73 47 -224 9 24
133 49 -252 -5 24
22 62 -172 55 23
-55 28 -25 -1 23
126 14 58 23 23
109 7 32 21 23
-135 -1 -404 -21 23
-37 9 -265 -44 23
75 23 158 43 23
-101 -15 769 121 23
-8 54 672 150 24
211 73 -71 -22 24
52 126 -598 -13 25
32 93 -462 117 25
244 73 162 139 26
112 73 315 102 27
-120 55 633 75 28
82 63 566 52 29
143 98 226 74 30
-56 70 -279 3 31
97 81 -470 26 33
224 79 -171 143 34
-5 83 192 137 35
3 116 389 111 37
267 84 223 111 38
147 119 -143 -29 40
-9 184 -181 76 41
258 134 89 230 43
149 153 262 165 45
-193 -8 -25 -10 47
13 -63 -370 -30 49
23 -135 187 -98 51
-289 -142 -73 -62 53
-187 -48 -88 -122 55
-63 -91 200 -107 57
-124 -170 1031 91 59
-133 -118 32 -302 61
200 -22 -1083 -281 64
27 43 -338 29 66
-217 -74 1302 344 68
60 -37 1200 160 71
32 -8 -430 -281 73
-221 -26 -1357 -399 75
4 7 -465 -53 78
117 -113 -347 -11 80
-194 -98 -1124 -269 82
-126 -44 -322 -59 84
120 43 429 56 87
-120 20 808 96 89
-133 -56 381 -104 91
369 213 -284 54 93
136 194 160 223 94
-26 103 460 297 96
143 44 298 159 98
89 14 -81 -91 100
-46 15 -319 -101 102
82 56 43 89 103
156 -32 67 116 105
-128 35 67 52 107
-149 -73 -136 -109 108
85 -78 -259 -142 110
-176 -85 -165 -93 111
-274 -135 -223 -168 113
3 -123 -280 -206 114
14 -30 -55 -36 115
-175 -27 -104 -99 116
179 -16 -77 -56 117
315 66 -3 27 118
-129 -64 -76 -89 119
-64 -13 -8 -80 120
51 73 64 72 121
-275 60 67 64 122
-220 34 83 90 122
112 100 102 49 123
-32 43 106 141 123
30 171 104 210 123
146 -17 -149 -7 123
210 190 73 167 123
-253 -88 -74 -38 123
63 -8 8 -9 123
143 14 60 26 123
-127 48 64 48 123
48 71 110 75 122
49 -128 -41 -110 122
-104 -17 36 -11 121
-65 24 17 11 120
145 -43 -66 -54 120
46 -17 -43 -29 119
-143 -36 -52 -21 118
99 -51 -77 -25 117
-83 -41 -51 -25 116
-465 -50 -74 -70 115
-253 -10 -55 -22 114
-52 14 -130 -24 112
-196 -60 -305 -139 111
-9 -13 118 71 109
198 15 217 78 108
36 32 274 121 106
-9 9 -69 -31 104
364 37 -71 10 103
136 47 153 61 101
-71 31 108 27 99
305 85 94 77 97
221 51 -16 38 94
-43 72 5 64 92
165 80 -66 81 90
312 149 -138 91 87
-107 13 -65 12 85
-98 -66 -103 -96 82
51 -123 -50 -163 80
-133 -34 60 -24 77
-245 -56 132 -21 74
112 -64 -150 -42 71
-43 -78 -323 -97 68
-263 -65 -85 -101 66
72 7 357 137 63
137 -1 255 42 60
-110 47 -18 41 58
58 39 -115 -25 55
183 3 5 -43 53
3 85 66 38 51
-53 31 -148 -24 48
154 -2 -129 -33 46
-40 -1 -8 -49 44
-215 -50 -56 -87 41
170 48 80 86 39
125 88 101 114 37
-36 125 96 125 34
131 35 -12 42 32
167 73 -21 41 30
-120 49 -150 34 28
115 108 -68 58 25
247 69 -5 69 23
-14 96 276 132 22
-77 23 181 33 20
105 -57 45 -54 18
-150 -113 -95 -105 16
-264 -97 -64 -77 15
51 -47 35 -55 14
11 -46 -54 -71 13
-157 -13 -45 -33 12
-24 -54 -192 -73 11
74 -44 -373 -96 11
-171 -34 -371 -61 10
-76 -29 -75 45 10
166 11 105 45 10
-57 3 -129 -41 9
-112 17 -497 -95 9
118 8 -169 0 10
-25 -31 451 89 10
-151 -5 777 70 10
100 12 353 -1 10
131 56 -243 -61 10
-133 61 -241 33 11
0 18 46 59 12
178 44 248 152 12
-21 74 -169 56 13
-20 59 136 43 14
183 81 139 29 15
-12 48 228 32 16
-154 16 -124 3 17
157 25 -433 -42 18
-19 -43 -396 -41 20
-121 -13 259 103 21
128 0 258 1 22
169 54 390 87 24
-122 3 139 18 26
-27 -19 311 85 27
150 25 63 18 29
-88 32 119 74 31
27 131 2 58 33
311 171 275 201 35
128 130 19 100 37
-48 75 -22 47 39
170 70 -151 9 41
-21 -50 -203 -16 43
-262 -139 -844 -229 45
-22 -171 -314 -140 47
53 -71 409 -28 49
-264 -81 753 73 51
-84 -26 336 -93 53
135 -59 -809 -176 55
-155 -90 -531 -157 58
-129 -29 20 -33 60
134 -96 513 75 62
65 149 407 157 64
-152 30 -442 -108 66
158 31 19 117 68
70 -58 -273 -17 70
-309 -88 254 82 72
-25 25 353 83 74
66 25 185 -105 76
-146 111 184 40 78
8 -42 -299 -105 80
216 49 -1021 -187 82
-115 -45 -171 -99 84
-108 121 109 99 86
146 -129 -95 -83 87
28 -39 -127 17 89
-145 31 -176 15 90
128 80 -113 -5 92
161 163 438 161 93
-54 13 637 343 95
133 174 651 241 96
313 99 203 159 98
65 210 -694 -260 99
93 95 -200 -5 101
283 122 537 367 102
7 72 224 135 103
-125 -64 -157 -55 105
47 -136 -445 -290 106
56 23 -98 -45 107
-176 23 -68 -30 108
123 -5 -115 -53 109
101 -119 -106 -83 110
-17 53 77 70 111
96 -15 -28 -6 112
252 15 -13 1 113
-32 119 62 77 114
-187 -55 -50 -53 114
-78 -75 -96 -82 115
-224 -78 -79 -72 116
-301 -82 -51 -62 116
76 56 114 95 117
-3 1 76 63 117
-227 -15 -1 -17 117
-37 -65 -68 -98 118
-41 -149 -122 -141 118
-257 -109 -115 -133 118
-45 -49 2 -25 118
222 47 40 107 118
-138 -20 -40 43 118
46 144 128 168 118
303 112 50 96 118
43 77 27 54 118
-98 27 22 73 117
8 -167 -169 -161 117
83 23 33 24 116
-300 -62 -36 -71 115
-19 -9 -183 -88 114
12 -92 -257 -141 113
-212 27 125 114 112
1 -25 122 26 111
341 -2 203 60 110
-64 -67 -55 -102 108
-267 -66 -96 -85 107
-42 7 58 25 105
-203 46 41 33 104
-312 25 -53 -9 102
28 21 -31 1 101
99 34 18 41 99
-131 42 -23 20 97
121 -7 -81 -33 95
267 -25 -52 -23 93
-82 -10 -5 -3 91
15 -13 -257 -56 89
338 -8 -394 -52 86
101 39 -57 -8 84
2 12 385 135 82
279 28 351 158 79
159 39 104 40 76
-49 85 -74 55 74
129 28 177 82 71
71 12 126 45 69
-204 -40 66 14 66
-56 -8 56 -24 64
216 11 43 -4 62
-80 25 -55 -17 60
-28 38 -194 -42 57
229 58 -149 -12 55
-21 22 -17 16 53
-136 17 77 0 51
166 23 24 -6 49
166 115 14 80 47
-206 -8 -127 -35 45
47 -7 -6 -16 43
186 39 113 4 41
-229 0 15 -25 38
-2 21 -81 -23 37
147 -27 -163 -16 35
-171 -33 45 1 33
-114 14 140 13 31
183 -3 101 0 29
-22 15 17 -8 28
-212 -11 -69 -9 26
97 -32 -84 -32 25
71 -19 -62 -20 24
-172 6 -55 3 22
62 18 -53 0 21
144 -1 -45 -1 20
-138 18 -24 -1 19
-38 26 -25 37 19
208 41 -134 22 18
-19 49 -281 11 17
-85 38 -242 32 17
177 36 109 71 16
49 19 322 77 16
-141 27 365 63 16
128 60 191 61 16
130 47 143 43 16
-138 31 163 29 16
45 27 29 0 16
203 74 -239 -4 16
-33 100 -413 11 16
13 82 -293 60 16
219 71 255 64 16
-26 13 501 156 17
-138 -7 161 19 17
149 14 -217 -25 18
68 50 -461 -6 18
-137 43 -175 -4 19
142 81 372 207 19
152 44 502 139 20
-143 51 255 20 21
-30 -8 -49 -77 21
209 -18 -58 -5 22
-133 -17 188 66 23
-75 -48 -82 -35 24
118 -52 -675 -147 25
-69 -40 -318 -112 26
-200 -12 144 60 27
133 -29 220 -17 28
59 -5 49 75 30
-283 -1 425 29 31
23 -48 756 192 33
117 10 42 -6 34
-179 -14 -643 -122 36
-57 -25 -723 -170 38
191 -61 83 -42 39
-99 -24 380 21 41
-85 -3 335 39 43
240 102 -8 15 45
-7 109 -176 0 47
-166 44 -233 -67 49
147 19 -233 -55 51
82 -10 -202 -19 53
-142 -29 -834 -177 55
71 2 -514 -102 57
141 -27 419 118 58
-165 -17 933 206 60
-81 -16 466 59 62
162 13 115 38 64
-85 10 172 -42 66
-159 -39 262 59 68
190 8 -238 31 70
72 34 -231 -61 72
-125 39 -1 69 74
101 -47 -566 -291 75
51 -28 -429 -75 77
-293 -34 -96 83 79
-24 28 -48 32 81
115 -71 -408 -262 82
-204 -75 -253 -195 84
-180 -81 939 325 85
123 26 970 341 87
-61 66 168 52 88
-135 13 -622 -289 90
180 13 -418 -173 91
30 -14 -167 -29 93
-179 -3 -68 50 94
163 58 75 75 95
143 31 135 79 97
-192 -17 -100 -59 98
21 27 -181 -73 99
210 27 -58 5 100
-105 3 -49 -35 101
-57 -24 -68 -13 102
197 47 -31 -8 103
7 82 31 65 104
-116 52 -4 8 104
191 -9 8 24 105
-47 -100 -112 -146 106
-122 5 107 65 106
219 246 168 198 107
151 40 37 38 107
-133 40 18 74 107
20 97 67 97 108
192 45 15 61 108
-11 191 148 163 108
-56 19 -6 -1 108
198 -23 1 -26 108
113 157 183 173 108
-215 -14 -11 -26 108
132 -9 2 -5 108
35 -53 -59 -67 107
-323 -108 -132 -125 107
2 -67 -18 -23 107
81 -127 -131 -121 106
-170 -32 -12 15 105
-79 -9 -38 -15 104
250 24 45 48 103
-50 -19 3 -1 102
-99 -58 -8 -14 101
169 35 -45 -8 100
-93 -5 -39 -10 99
-155 34 -11 -15 98
95 -25 -36 -37 96
115 -18 -59 -39 95
-187 15 -42 11 93
7 1 34 39 92
209 45 132 95 90
-167 -2 32 16 88
-55 -13 -69 -28 86
161 -6 -50 -19 84
-20 -15 -110 -71 82
-145 -11 -112 -59 80
148 -19 159 120 78
113 35 203 123 76
-175 22 92 65 73
-11 -7 -254 -86 71
33 20 -176 5 68
-251 76 223 114 66
26 136 384 143 63
229 24 197 31 61
3 64 15 3 58
24 71 -37 22 56
335 47 38 64 53
98 48 -51 -13 51
-58 39 -37 0 48
151 28 -59 -29 46
7 -14 -98 -29 44
-283 -104 -266 -123 42
-58 -102 -301 -161 39
38 -94 -240 -110 37
-195 -36 -103 -47 35
-85 -76 -105 -75 33
123 -97 31 -91 31
-133 -48 85 -55 29
-76 49 199 47 27
222 33 57 19 26
89 73 -62 41 24
-110 82 29 107 23
177 90 266 169 22
101 -13 289 23 20
-90 59 230 58 20
57 32 -110 -21 19
206 93 -230 47 18
-87 26 -422 -37 18
-56 -30 -184 -20 17
91 -59 -62 -57 17
-105 -33 111 -5 17
-142 -33 90 -31 17
155 -9 -165 -82 17
-28 -33 -299 -33 17
-143 32 -117 32 17
110 19 -12 18 17
119 15 307 92 17
-203 7 447 59 17
-38 13 63 25 18
221 58 -234 -37 18
-98 0 -400 -94 18
6 43 11 59 19
152 -19 61 75 19
-127 -6 465 20 20
-177 -56 454 82 21
136 32 272 -20 22
82 56 -348 -40 22
-66 93 -613 -23 23
164 78 -259 68 24
281 104 346 170 26
-155 58 424 100 27
57 48 113 -20 28
127 -12 -191 -4 29
-46 -48 -392 -22 31
-17 23 -352 -50 32
197 49 69 -13 34
3 59 371 66 36
-119 8 411 20 37
156 69 -15 116 39
117 39 -149 -22 41
-221 -27 -248 40 43
-21 -61 -141 -67 45
115 -52 48 53 47
-235 -133 287 -101 49
7 -133 -435 -230 51
121 -123 -769 -305 53
-217 -59 -131 -116 55
-259 -73 920 199 57
119 22 520 36 59
12 91 -602 -54 62
-76 104 -753 -160 64
154 10 45 200 66
17 45 392 150 68
-218 23 224 108 70
49 41 96 -45 72
167 64 118 8 74
-211 -64 -517 -163 76
5 -17 -250 -35 78
176 15 303 53 80
-111 -13 512 46 82
-90 3 13 -95 84
232 -48 -387 -145 85
221 80 -254 18 87
-167 74 81 91 89
-3 19 -55 33 91
-58 -22 -371 -116 92
-306 -83 56 59 94
82 36 415 151 96
281 51 135 30 97
-27 68 -362 -155 99
-45 92 -420 -119 100
307 59 307 191 102
-19 81 521 220 103
-158 -27 90 44 104
179 -70 -183 -83 106
66 54 -194 -93 107
-253 -37 -192 -122 108
92 26 -90 -49 109
34 -111 -173 -129 110
-157 -21 -18 -21 112
175 210 185 166 113
164 -13 -27 0 114
-40 211 136 197 114
-227 -79 -104 -112 115
133 -61 -2 1 116
-249 -214 -229 -269 117
-125 92 81 72 117
59 -31 -97 -86 118
148 150 117 187 118
-157 -36 -8 95 118
108 -11 -8 70 118
96 -23 -110 -31 118
-111 0 23 45 118
-25 -37 -13 -22 118
248 15 73 45 117
-74 -11 37 -61 117
-78 14 15 6 117
179 23 28 12 116
-13 11 8 18 115
-37 -21 -37 -21 114
86 16 -5 -6 113
31 33 -34 8 112
-368 6 25 29 111
-335 5 40 14 110
-128 32 62 43 109
-325 -13 -191 -74 107
-69 -12 -169 -67 106
269 2 116 65 104
56 -7 133 10 102
79 -34 7 -43 101
341 -9 -93 -32 99
106 -19 -82 -50 97
-13 24 53 49 95
201 -14 -161 -23 93
178 25 -8 54 90
-162 -20 165 45 88
51 -6 137 -22 86
234 36 -126 14 83
-119 24 -362 -90 81
-94 31 -63 -3 78
221 36 237 29 75
8 31 272 110 73
-133 -34 -91 15 70
130 -3 -147 -25 68
121 24 173 33 65
-173 37 267 88 63
139 56 234 103 60
194 69 -17 88 58
-122 46 -72 -19 56
-62 -37 -78 -113 54
194 -45 3 5 52
-122 -20 -207 -98 49
-193 -31 -152 -49 47
137 28 -111 11 45
-115 -37 -146 -82 43
-138 15 -160 -27 41
189 16 -177 -26 39
157 23 68 47 37
-74 75 209 69 36
103 -1 186 37 34
175 2 63 -17 32
-228 -11 -269 -95 30
-129 17 -237 -17 29
7 -9 264 69 28
-161 -24 506 92 26
-197 -11 390 10 25
183 46 26 3 25
95 78 -175 6 24
-97 38 -242 24 23
208 83 -296 8 23
81 1 -463 -83 22
-209 -47 -443 -85 22
47 25 71 52 22
105 2 180 95 22
-122 54 376 44 22
-45 -7 302 50 22
208 40 -108 7 22
-33 126 -71 83 22
-14 81 231 164 22
184 -51 498 95 23
-25 -25 189 -88 24
-157 -25 -334 -127 24
93 -12 -243 1 25
244 75 -154 45 26
-169 -14 -206 -8 27
53 56 -130 -34 28
76 -28 -48 -91 30
-87 0 -126 -36 31
-20 -14 -21 33 32
143 -24 130 50 34
-97 41 587 137 36
-75 10 754 80 37
143 9 394 -78 39
148 38 -81 5 41
-18 21 -295 -11 43
166 29 -298 75 45
267 5 -213 -10 47
-248 -77 -85 -76 50
-240 -49 21 -89 52
-12 -34 -662 -139 54
-366 16 -369 -112 57
-155 -91 -30 -5 59
123 -32 437 65 61
-19 -114 206 7 63
-154 -10 105 0 66
197 93 -313 -56 68
212 126 -465 49 71
0 146 24 109 73
91 -42 420 -18 75
487 192 922 257 78
-333 109 -240 -107 80
-266 55 -746 -195 82
-31 48 -466 -57 85
-181 -22 768 245 87
-62 5 343 126 89
287 -9 76 61 92
72 73 11 -39 94
-166 -39 -7 10 96
80 68 -75 -39 98
186 -151 -317 -147 100
-185 49 -440 -191 102
85 -53 -236 -54 104
191 -78 -208 -102 105
-130 4 -209 -93 107
-28 18 -147 -49 109
244 64 -1 28 110
-6 51 15 55 112
-46 19 35 61 113
273 71 70 83 114
41 43 -32 -25 115
-179 -43 -17 -44 117
70 -43 1 -50 118
26 -114 -40 -34 119
-117 85 67 64 120
70 18 -16 -35 121
382 70 31 -14 122
76 -200 -160 -247 123
105 141 127 177 123
80 52 19 132 124
-176 129 84 183 124
-375 -43 -47 57 124
17 -68 -21 16 124
-34 57 -29 -5 124
-305 -48 -84 -46 124
64 111 205 145 124
83 -8 111 27 124
-148 33 143 51 123
-121 -65 -87 -123 123
137 -36 -71 -59 123
-131 -21 -15 -13 122
-91 -35 -52 -32 121
184 -51 -81 -54 120
-32 -37 -45 -31 119
-284 -28 -41 -36 118
-108 -6 -35 -4 117
-141 30 -54 10 116
-427 0 15 15 115
30 17 47 17 114
155 -31 -81 -57 112
-99 -16 -151 -45 111
49 22 79 33 109
310 -15 -23 -44 107
19 29 124 25 106
-33 19 173 159 104
311 66 171 123 102
131 68 152 111 100
-106 16 -96 -34 98
239 47 -73 1 96
84 -37 -53 -17 94
-116 -55 -212 -89 92
66 -45 -449 -133 89
145 31 -143 9 87
-69 18 95 -31 84
-47 -5 205 15 82
259 16 205 42 79
-33 7 45 21 77
-171 17 75 25 74
203 43 71 67 71
61 78 -45 87 69
-153 23 46 104 66
136 -7 161 28 64
95 -34 172 -6 62
-187 -26 72 -54 59
31 13 -93 -65 57
169 -8 -168 -60 55
-149 30 -76 24 53
-79 15 -117 -7 51
221 16 -133 -21 49
20 14 -109 6 47
-167 -10 7 -5 45
175 11 64 3 43
-37 -80 -65 -91 41
-97 49 -171 5 38
199 133 -61 74 36
289 181 233 177 34
-68 93 326 123 32
-15 23 371 101 30
50 -30 137 -24 29
-217 -57 -165 -96 27
-83 -22 -411 -126 25
88 -131 -496 -175 24
71 -57 -219 -48 22
-122 -57 0 2 21
145 44 185 60 20
39 58 -35 26 19
-306 -8 -33 -65 18
-138 -35 23 -63 18
-21 -3 62 -2 17
-248 -1 -198 27 17
-64 41 -82 125 17
122 -21 73 99 16
-231 -83 150 93 17
-99 -20 361 -16 17
233 -40 -8 -66 17
115 63 -157 -45 17
-16 39 -299 -58 18
135 -33 -199 6 18
144 33 136 11 19
-141 99 300 83 20
167 169 112 65 20
169 94 -37 45 21
-75 -113 -99 71 22
-41 -48 210 30 24
253 51 -50 27 25
-33 240 -860 -38 26
-198 -45 -234 101 27
146 -283 302 173 29
-23 -318 1308 41 30
-202 118 779 -92 32
75 344 -135 -147 34
89 274 -463 -96 36
-135 -47 -74 -14 38
79 -74 -384 4 40
247 104 227 69 43
127 42 114 127 45
-1 -94 102 35 47
166 17 -100 -15 50
-191 18 -444 -117 52
-376 9 77 -8 55
55 -55 -240 -3 57
42 -3 -324 -2 60
-203 47 -389 -51 62
-27 22 208 -44 65
135 -11 -168 -23 67
-14 -6 72 90 70
-80 -29 96 49 72
-39 -48 434 -80 74
-173 63 537 22 77
-148 79 329 47 79
236 57 320 256 81
81 24 93 118 84
-207 -57 -492 -227 86
150 8 -540 -186 88
158 48 -94 25 91
-133 7 -89 23 93
64 22 -225 -92 95
163 25 -177 -88 97
-157 -56 -75 -37 99
27 -34 75 83 101
222 25 91 73 102
-40 78 -129 -77 104
108 181 -1 96 106
251 -8 -15 38 107
132 39 -39 11 109
-286 -236 -272 -211 110
82 -2 -67 -70 112
125 -7 54 39 113
182 287 237 242 114
135 86 75 77 116
159 66 38 15 117
-335 -235 -173 -205 118
-251 -198 -234 -290 119
136 -147 -143 -257 120
252 128 113 113 121
-178 -19 -40 82 122
73 61 86 227 123
-91 109 42 110 123
-444 0 -36 -32 123
-129 -82 -62 -28 124
32 -33 -65 45 124
-312 -98 -143 -78 124
-103 -3 -10 21 124
138 10 92 52 123
-135 -49 75 -13 123
-196 -69 -15 -84 123
75 -81 -128 -121 122
-134 -115 -85 -117 122
-103 -17 15 -22 121
200 38 33 43 120
189 87 59 79 119
-118 -21 -37 -21 118
38 7 6 6 117
-152 26 10 21 116
-517 -14 -40 -8 114
-180 81 58 60 113
163 64 48 51 111
58 83 59 75 110
64 -16 -41 -27 108
314 -33 -73 -39 106
80 -26 -189 -72 104
-32 32 -132 -28 102
374 118 28 64 100
158 91 287 168 98
-155 41 279 138 96
61 -53 -50 -80 93
206 14 -30 34 91
-204 -46 36 -26 88
-11 -24 188 56 86
262 -10 159 47 83
36 78 -132 -13 81
-16 45 -175 -12 78
310 59 -47 35 75
46 37 49 13 73
-216 -29 -298 -129 70
127 -11 -126 -36 67
96 44 286 86 65
-96 47 422 79 62
92 25 129 30 60
213 -5 -253 -76 57
-180 -25 -181 -39 55
-131 -15 46 -6 52
285 39 16 19 50
-127 -70 -345 -122 48
-156 35 -94 22 45
216 49 173 55 43
37 65 256 81 40
-114 80 227 72 38
230 36 -194 -8 36
151 8 -239 -37 34
-280 -52 -284 -91 31
-33 -24 -346 -69 29
90 -25 -158 -17 28
-150 51 224 94 26
-16 41 501 90 24
223 27 336 -5 23
-33 36 -24 -22 21
-65 24 -227 13 20
118 27 -93 82 19
-4 0 46 64 18
-207 57 1 58 17
20 43 67 20 17
66 10 118 28 17
-209 -42 321 -41 16
-137 -82 251 -57 16
117 -45 -258 -121 16
-161 -33 -611 -116 16
-205 -5 -803 -111 17
183 -65 -262 -51 17
-73 -42 254 85 17
-128 56 55 90 18
204 98 -54 55 19
168 50 -238 -20 20
-57 23 153 8 21
92 11 191 29 22
167 62 160 100 23
-25 82 888 217 24
-27 104 690 186 26
190 -59 451 57 27
86 -22 39 -1 29
-168 -70 -371 -119 30
133 72 -424 -161 32
-39 157 -970 34 34
-17 241 -318 52 36
109 98 61 130 38
242 -33 273 -1 41
-159 -132 20 -98 43
-50 -239 223 -42 45
18 -174 622 59 48
-83 -57 231 -117 50
112 81 -357 29 53
166 88 -419 -39 55
-71 45 7 87 58
-147 -24 608 113 60
36 46 -526 -102 63
-10 26 -682 -271 65
-146 -31 -551 -161 68
45 4 102 129 70
-8 -12 458 102 73
-264 -36 -69 -118 75
128 -65 -129 -205 78
99 -1 303 47 80
131 71 654 340 83
11 151 552 214 85
181 118 222 70 87
-56 110 -178 9 89
-304 115 -5 107 92
-132 -23 -130 -24 94
-85 24 -422 -169 96
-184 -77 -455 -174 98
-16 -48 -25 6 100
70 -166 179 69 102
-151 21 -189 -110 104
-24 -141 -375 -195 105
107 -90 -216 -121 107
-113 -51 -162 -123 109
-105 -67 -165 -85 110
271 71 -33 -2 112
155 115 95 95 113
-124 -75 -97 -107 114
272 28 30 24 115
216 96 127 101 117
-40 80 81 89 118
171 100 77 108 119
53 -131 -157 -168 120
-106 54 77 97 121
70 144 145 172 122
196 121 129 153 122
35 176 167 169 123
213 316 339 348 123
215 122 114 134 123
52 -16 0 8 123
-282 -279 -251 -256 123
-120 -159 -181 -200 123
-111 -157 -155 -141 123
-347 -201 -195 -208 123
-126 -116 -93 -83 123
65 -53 -34 -37 122
-92 36 58 35 122
-113 -51 -48 -56 121
191 15 -32 -6 120
-268 27 74 45 119
-358 -14 42 -38 118
28 -6 18 32 117
-107 25 2 30 116
-252 40 9 76 115
289 42 29 60 114
243 25 -16 5 112
-89 -15 -127 -38 111
81 -8 -29 3 109
222 57 91 62 108
-94 53 51 37 106
-80 37 17 31 104
255 44 13 30 102
-19 6 116 55 100
-190 -11 71 -7 98
223 2 43 18 96
65 -15 -35 -26 94
-215 -17 -24 -19 91
169 11 -50 -9 89
149 7 -328 -63 86
-158 -26 -356 -67 84
-29 -11 -118 -55 81
251 49 313 67 78
-79 56 467 121 75
-63 -1 226 67 73
293 59 59 96 70
39 47 -27 79 67
-226 -5 -319 -94 64
130 -5 -117 5 61
124 41 281 89 58
-135 43 388 111 56
87 -2 69 -10 53
207 -28 -273 -109 51
-138 39 -41 -27 49
-33 44 155 63 46
235 30 14 3 44
-87 -37 -200 -99 42
-107 -16 -169 -65 40
185 -48 -204 -83 38
95 75 -159 -6 36
-133 78 -133 28 34
205 123 -21 122 32
151 108 -17 106 30
-120 77 27 38 29
63 13 154 27 27
166 -31 298 11 26
-230 -33 55 -67 24
-206 -21 -169 -71 23
103 -16 -158 2 22
-203 -24 276 54 21
-263 -23 443 78 20
103 -5 204 7 20
9 -18 -216 -65 20
-201 -14 -389 -100 20
78 -37 -416 -106 20
97 -57 -224 -47 20
-152 -29 47 19 20
4 -22 -25 -29 20
251 86 51 102 20
-37 83 143 117 21
-40 117 170 150 21
172 62 -83 -80 22
-13 27 -289 -74 23
-120 -47 -37 2 23
117 -17 316 90 25
109 6 465 114 26
-124 45 -3 -1 27
78 66 -157 53 28
148 34 -85 79 29
-82 56 77 116 31
-81 31 358 -23 32
158 -75 229 -34 34
-113 -40 -367 -150 36
-121 -21 -26 -60 37
180 -5 189 118 39
18 -49 -143 -37 41
62 142 -278 63 43
358 137 131 140 45
392 -15 524 97 47
-62 -24 299 39 50
-61 -67 -538 -85 52
-61 -29 -368 -79 54
-377 -57 240 20 57
-249 37 198 -97 59
35 47 137 -88 61
-165 -45 -227 -193 64
-193 -184 -497 -158 66
215 -28 -692 -12 69
147 216 275 217 71
-39 156 1147 349 74
371 80 684 79 76
164 53 -219 -109 78
-177 -22 -526 -149 81
-317 131 -155 16 83
-75 107 -261 -60 86
-340 -9 -394 -146 88
-29 -61 -65 -69 90
136 -139 253 21 92
-46 -72 -615 -224 95
-188 -38 -776 -225 97
280 -85 424 239 99
222 140 1059 433 101
-21 106 749 266 103
157 156 -311 -175 104
136 -35 -460 -163 106
-168 -66 12 -11 108
-25 -38 -65 -37 110
132 -197 -368 -186 111
-109 -26 -199 -97 113
-131 36 -127 -49 114
267 112 -10 45 116
32 -61 -4 -19 117
-100 -54 97 53 118
118 52 -35 -38 120
135 102 27 27 121
-220 -109 -55 -65 122
-151 -218 -152 -213 123
36 -115 -117 -231 124
-128 128 84 53 125
127 178 178 277 125
248 94 48 212 126
61 33 33 188 126
-139 57 -21 16 126
209 13 37 59 126
-33 41 -36 22 126
-262 -114 -13 -42 126
88 -35 -17 -61 126
64 -41 11 -26 125
-126 78 144 65 125
74 0 40 2 124
191 25 71 57 124
-32 59 27 29 123
11 17 -15 -13 122
180 -19 -8 -15 121
-221 -23 -36 -29 120
-507 -51 -87 -48 119
-170 -31 -49 -17 117
-296 -37 -43 -44 116
-362 -51 -81 -78 115
97 -14 -104 -43 113
186 -17 -130 -33 111
-68 14 -59 -53 110
111 -9 125 24 108
309 19 216 85 106
13 31 83 54 104
-8 -4 -22 11 102
316 47 -12 14 100
-21 30 -46 -17 98
-10 64 -26 16 96
239 73 91 116 93
150 18 15 24 91
-178 -35 16 -11 89
160 27 -138 -29 86
193 13 -475 -121 83
-200 -14 -160 -43 81
-11 11 99 37 78
212 23 421 145 75
-59 60 437 159 72
-131 -29 200 11 69
270 81 97 60 67
-35 15 -177 -33 64
-192 31 -98 22 61
136 -66 -25 -62 58
64 -15 124 -9 56
-195 -3 -72 -24 53
-24 -93 -401 -187 51
117 -8 -174 -72 48
-217 -21 -51 -51 46
31 40 -34 30 44
247 -2 -174 -19 41
-91 5 -63 4 39
-79 39 19 45 37
193 39 209 71 35
72 27 122 18 32
-165 5 -162 -54 30
92 47 -38 29 28
97 93 113 90 27
-135 44 42 26 25
91 6 60 48 23
229 23 177 41 22
-81 17 421 159 21
103 101 462 179 20
242 65 -122 26 19
-143 71 -439 -55 18
-224 10 -269 -11 18
44 -31 148 51 18
-11 -2 284 33 18
-194 12 -23 -13 18
71 11 -257 -32 18
29 -31 -389 -130 18
-185 -51 -280 -116 18
9 -13 -93 -28 19
149 -27 233 59 19
-137 7 392 67 20
-95 -19 245 8 20
143 16 -223 -17 21
-29 47 -378 -13 22
-175 -1 30 25 23
122 41 256 67 25
144 60 281 93 26
-174 51 -109 -80 27
113 -55 -58 -5 28
141 -77 -143 -151 30
-163 27 -48 131 31
57 -25 46 47 32
240 2 273 16 34
-64 61 645 67 36
-7 70 463 70 38
137 -3 -12 49 39
134 -48 -633 -77 41
-153 -11 -599 -137 44
72 61 -208 -29 46
-14 3 -87 13 48
-245 -8 -483 24 50
21 29 493 135 53
123 16 1160 269 55
-147 4 1148 137 57
-58 92 97 14 60
236 186 -1074 -240 62
-6 109 -687 -95 65
-16 21 -22 9 67
227 99 -395 11 70
212 52 -42 67 72
-329 -21 176 -21 74
-163 -176 241 -84 76
-75 -87 -141 -106 79
-325 -91 -308 -115 81
26 85 38 83 83
210 -50 249 69 85
-165 -75 -295 -149 87
18 129 -152 -11 89
223 -35 394 199 91
13 100 466 165 92
-104 -64 -174 -76 94
231 98 -479 -185 96
152 52 -69 29 98
-49 47 126 96 99
107 -48 -53 -4 101
75 -1 -214 -112 102
-144 -47 -165 -92 104
3 -13 -109 -39 105
115 -93 -139 -83 106
-128 -131 -107 -71 108
69 106 68 90 109
387 220 235 245 110
88 191 76 109 111
-13 72 74 47 112
-93 -283 -216 -317 113
-28 -70 -49 -85 114
-155 166 128 160 115
71 79 58 77 116
-138 -273 -311 -265 117
-294 -189 -128 -105 118
93 131 163 208 118
173 48 29 4 119
20 17 39 -23 119
-119 -177 -160 -117 119
65 -58 -102 -27 119
122 144 106 194 119
-139 18 29 -11 119
65 85 113 87 119
-73 -10 12 17 119
-356 -42 -54 -63 119
-63 -53 -113 -95 118
13 28 77 65 118
-207 7 65 18 117
-67 41 95 49 116
133 -23 -33 -37 115
-241 -105 -145 -104 114
-272 -78 -81 -55 113
101 -33 -62 -34 112
-48 -35 -83 -46 111
-224 -42 -131 -84 110
135 -4 -39 -17 108
169 12 67 56 107
-194 -41 44 11 105
79 -15 -114 -36 104
215 -34 -445 -179 102
-121 32 107 91 100
-26 23 333 132 98
345 155 502 235 97
-15 52 64 7 94
-77 16 -167 -60 92
303 71 48 58 90
101 45 19 24 88
-45 78 -168 21 86
215 2 -451 -55 84
133 -6 -185 -55 81
-215 -25 109 -25 79
-46 -16 481 56 77
263 13 423 173 74
-41 82 10 57 72
-10 61 -294 -61 70
189 27 -178 -44 67
-77 -14 23 -1 65
-201 2 281 122 62
285 7 133 35 60
23 -66 -356 -117 58
-179 -5 -473 -110 56
61 2 -241 -71 53
147 38 5 27 51
-177 -1 357 21 49
-50 -69 176 -57 47
172 9 -5 -54 45
-61 81 -43 76 43
-26 106 74 124 41
258 55 328 110 39
99 86 308 122 37
-88 173 132 84 35
134 72 -88 31 34
77 0 -240 -84 32
-224 -93 -155 -102 30
17 -78 -182 -68 29
126 -68 -229 -74 27
-161 -51 -295 -73 26
-94 13 -108 47 24
77 15 42 17 23
-141 -73 96 -31 22
-129 -69 43 -69 20
232 37 11 12 19
62 37 -187 19 18
-77 37 -159 40 17
151 1 -24 -5 17
31 -7 139 -19 16
-267 -7 211 5 16
-91 -15 227 47 15
15 29 269 54 15
-209 0 142 35 15
-58 55 -112 -14 15
176 -11 -553 -91 15
-29 14 -419 -77 15
-118 -22 260 115 16
162 -43 375 23 16
106 12 138 -7 17
-92 -18 -455 -112 17
94 17 -254 41 18
128 51 165 130 19
-188 47 306 70 20
-5 74 -9 69 21
203 52 72 21 22
-61 15 214 94 23
-25 11 16 -20 24
244 49 -174 -16 26
116 114 547 164 27
-40 65 360 63 29
258 40 21 -37 30
-49 -48 -512 -151 32
-305 -67 -47 29 34
39 66 311 103 36
102 98 -112 -7 38
-125 50 -391 -134 40
-67 -66 -42 5 42
52 -119 485 64 44
-133 -83 -80 -58 47
-161 -37 -573 -153 49
242 120 -227 -31 51
19 51 231 55 54
-170 -85 325 -98 56
77 -16 21 -31 58
-33 -66 -364 -140 61
-180 90 -735 -26 63
84 49 -82 42 66
276 69 598 270 68
-124 66 929 207 70
-4 38 211 56 73
238 44 -191 -22 75
-15 -14 -474 -49 77
-103 -32 -324 75 79
113 -79 9 -18 82
-1 63 237 45 84
-204 34 209 -29 86
113 19 73 -79 88
107 11 -95 -43 90
-205 -53 -11 -14 92
3 -98 -12 1 94
205 49 -11 59 96
-118 -78 -63 -71 98
-3 40 -45 -38 100
198 19 -371 -151 102
-34 -45 -191 -35 103
-157 -31 -55 -30 105
152 -6 -110 -49 107
4 -106 -237 -128 108
-84 29 -40 -15 109
102 -138 -35 -105 111
134 -17 -45 -115 112
-72 125 39 96 113
154 219 122 197 114
170 -35 -7 8 115
-116 -57 -2 -36 117
-107 83 45 5 117
374 261 264 320 118
-87 -19 -26 129 119
23 129 95 159 119
217 58 37 83 119
35 37 49 78 120
-301 -14 -139 -35 120
-140 -74 -81 -45 120
-42 -31 29 -31 119
-239 5 191 8 119
-127 19 136 5 119
82 -13 21 -33 118
-237 -51 -55 -33 118
-426 -99 -93 -102 117
59 -15 -57 -48 116
-170 21 -1 28 115
-255 21 -1 9 114
146 23 -3 55 113
68 -31 -64 -30 112
-197 -41 -53 -26 110
40 -58 -59 -45 109
221 -17 -97 -40 107
-123 -45 -132 -56 106
60 -4 48 47 104
319 39 -87 -9 103
46 -12 -37 -8 101
-6 21 175 77 99
248 3 216 45 97
68 3 185 37 95
-78 18 -93 -51 93
186 20 -176 -25 91
169 19 71 59 89
-129 22 80 57 86
55 13 -84 -21 84
217 48 -46 5 82
-91 59 -54 -5 80
-32 5 -241 -60 77
192 -15 -142 -2 75
-71 19 181 47 72
-156 -10 430 72 70
142 27 218 49 67
11 -12 -172 -55 65
-194 -56 -108 -21 62
78 -20 78 -21 60
120 -12 49 22 58
-123 33 -137 -20 55
23 38 -155 -16 53
173 15 -83 -1 50
-111 7 -51 -11 48
-81 10 -161 -11 46
180 18 -106 -9 43
-31 12 -185 -29 41
-167 -37 65 -7 38
112 -12 132 14 36
33 16 23 -27 34
-246 -9 -161 -83 32
10 -32 -145 -23 30
134 66 279 27 28
-57 53 540 190 26
97 78 415 99 25
251 37 49 25 24
48 53 -68 -2 22
-88 26 -117 42 21
256 25 -353 1 20
115 29 -357 -5 20
-208 9 -107 37 19
125 33 165 96 18
29 20 215 111 18
-228 27 2 -35 17
19 -24 -148 11 17
98 -63 351 -13 17
-96 -7 277 35 17
27 63 -6 -13 17
253 85 -184 -23 17
-18 2 -53 2 17
-172 -96 195 -12 17
93 -18 -39 -1 18
-85 37 -626 28 19
-251 35 -134 19 19
-35 -24 387 68 20
24 20 515 -21 21
-216 37 -20 -33 23
72 66 -480 -100 24
107 -34 -229 9 25
-152 -57 -77 -10 27
-74 -49 448 46 28
169 87 305 62 30
4 130 -279 -78 32
20 99 -631 23 33
190 54 173 137 35
150 4 783 287 37
-91 26 202 -59 39
80 5 -533 -143 41
105 3 -240 -1 43
-196 -32 649 119 45
17 -31 453 -4 47
152 -8 -466 -217 49
-86 26 -645 -97 51
-104 -21 105 129 54
142 -22 -45 -3 56
-30 -19 -643 -171 58
-120 -28 -388 -121 60
31 -26 289 56 62
6 17 595 83 64
-283 -79 -33 -67 66
-44 -5 -486 -141 68
222 34 -255 -34 70
-137 -3 205 72 72
29 37 663 258 74
201 9 237 32 75
-1 80 -188 23 77
-48 65 -555 -94 79
203 28 -1 29 81
122 14 -180 -62 82
-17 104 97 103 84
245 178 627 294 85
140 115 665 233 87
-254 -2 213 -24 88
-94 -146 -585 -306 90
229 70 -267 -40 91
-80 72 106 126 93
-77 -28 -189 -88 94
52 -205 -545 -318 95
-163 -121 -515 -262 97
-170 -42 -7 53 98
239 99 280 117 99
14 -72 232 67 100
-241 -104 39 -77 101
130 59 -102 -21 102
229 105 30 29 103
-273 -52 -105 -172 104
58 -36 -56 -111 105
131 3 -43 19 106
-131 -7 17 67 107
96 241 188 256 107
234 93 35 104 108
72 116 42 51 108
-134 19 11 -20 109
133 33 80 155 109
-64 -63 -79 26 109
-218 -41 -136 51 109
18 -68 -43 2 109
62 -33 -5 -69 109
-229 -42 24 -57 109
-32 -20 26 -40 109
147 42 40 5 108
-90 61 86 52 108
-105 57 77 60 107
299 119 116 124 106
59 69 80 73 105
-132 -30 -88 -25 104
230 67 19 75 103
46 62 96 75 102
-209 24 80 40 101
18 -23 -24 -31 100
122 -63 -123 -87 98
-294 -81 -208 -115 97
-116 -84 -34 -47 95
153 -73 -215 -70 94
-164 -78 -67 -48 92
-152 -63 53 -37 90
189 -23 128 -5 88
-23 -24 2 -16 86
-159 19 -107 -10 84
199 49 43 30 82
127 29 30 28 80
-143 29 18 19 77
80 -5 -97 13 75
184 29 -178 -28 73
-136 -2 -8 33 70
-12 37 217 43 68
223 33 306 97 65
32 68 66 57 63
-121 35 -383 -77 60
197 23 -288 -49 58
28 29 -7 18 55
-231 -10 264 35 53
84 -13 167 9 50
128 24 183 7 48
-113 54 164 44 46
64 23 51 -60 43
265 80 164 81 41
-188 -65 -193 -129 39
-107 -14 -179 -19 37
165 -33 -289 -71 35
-143 27 -353 -16 33
-56 130 -221 26 32
189 -37 -169 -1 30
-13 -36 116 -57 29
-139 59 126 71 27
65 8 -202 -63 26
119 20 -240 31 25
-96 -65 21 58 23
87 -67 478 150 22
161 -33 380 36 21
-88 49 652 41 21
-70 6 441 -25 20
205 15 40 -38 20
81 89 -280 -27 20
-156 65 -314 -1 20
71 83 37 120 20
15 7 -70 31 20
-256 50 -388 -17 20
36 17 -442 -57 20
127 4 -235 19 20
-134 -19 283 40 21
27 11 433 76 21
191 94 211 -26 22
-13 143 -509 -73 23
3 68 -243 129 23
235 -117 241 43 24
-98 -183 606 16 25
-245 -41 404 -16 26
13 81 18 -52 27
18 145 -567 -24 29
-110 79 -302 59 30
9 -24 -36 20 31
73 -14 668 111 33
-109 -31 592 18 35
-82 90 -513 -150 36
164 58 -193 -33 38
-49 -75 223 69 40
-107 -143 747 171 42
197 49 -29 -23 44
117 141 -945 -167 46
-172 128 -972 -77 48
181 20 299 177 50
119 -34 378 97 52
-167 -16 -264 -126 54
37 -35 -575 -185 57
7 -102 -13 31 59
-279 -129 875 39 61
-132 0 814 112 63
163 67 233 -95 65
-5 127 -17 78 67
-41 27 57 65 69
203 28 -231 -9 71
80 70 -618 -74 73
-96 -2 -503 -5 75
83 -52 108 -3 77
109 -17 -1 -61 79
-186 8 -138 -134 81
-22 -13 -164 -93 83
160 4 485 125 85
-57 48 343 131 86
-60 96 -537 -85 88
162 -52 -436 -122 90
-25 -47 453 215 91
-161 14 646 175 93
117 35 337 83 94
51 -67 -341 -179 96
-124 -14 -354 -108 97
46 -39 -190 -65 99
147 16 -192 -49 100
-99 18 -180 -33 102
42 5 -61 0 103
201 13 35 80 104
-64 61 -47 -57 105
-103 -52 -59 -114 106
229 58 126 85 107
-34 -43 -95 -75 108
-207 -32 -25 42 109
210 143 89 157 110
80 81 100 131 110
-74 95 97 95 111
55 95 2 5 112
160 57 55 71 112
-171 18 29 67 112
-63 -6 6 48 112
119 -44 -18 -31 113
-130 -30 -18 -12 113
-208 -96 -87 -92 112
47 -139 -161 -158 112
-49 -51 -65 -48 112
-179 9 -88 9 112
60 -37 53 2 111
62 -8 127 -15 111
-245 -22 101 -21 110
-31 -49 -21 -62 110
165 -2 -65 -21 109
-156 -19 -23 0 108
-106 18 15 32 107
219 75 35 91 106
-150 -1 -43 9 105
-142 17 8 25 103
206 57 44 63 102
85 40 -27 25 100
-148 22 -20 37 99
114 12 -41 19 97
115 -14 -122 -49 96
-177 -40 -265 -99 94
9 16 69 18 92
284 57 393 142 90
-76 25 399 142 88
18 43 42 26 86
208 -58 -465 -180 84
-100 55 -53 32 81
-66 8 221 70 79
215 56 224 90 77
169 7 33 35 75
-205 -28 -195 -86 72
34 -18 -397 -101 70
109 36 -319 -52 68
-161 -27 -175 -49 65
-27 13 310 75 63
262 54 509 122 61
-149 -20 237 54 58
-71 57 -33 42 56
180 28 -135 -17 54
-51 -75 -103 -100 52
-169 -29 74 -9 49
183 -26 61 4 47
202 128 62 100 45
-271 -4 -129 -70 43
59 -45 -99 -83 41
140 -25 -107 -33 39
-129 81 -33 104 37
40 107 -58 43 35
302 46 88 67 33
-42 78 184 64 31
-99 62 23 35 29
183 -23 -80 -24 27
22 -13 -89 -23 25
-192 10 -73 15 24
159 7 14 39 22
232 50 82 47 21
-159 9 11 17 19
26 -8 52 10 18
147 7 23 -7 17
-99 53 75 39 16
19 72 55 38 15
166 27 -96 -16 14
-102 21 -141 9 13
-280 9 -69 11 12
-10 -21 90 42 12
-55 -37 117 84 12
-221 -21 -274 -47 11
7 -39 -434 -42 11
125 -51 -233 -42 11
-124 -27 130 19 12
26 10 231 -3 12
135 6 87 33 12
-108 -46 330 43 12
-122 -21 216 -45 13
131 -46 120 -11 13
-2 52 312 4 14
-105 65 450 95 15
248 107 -126 60 16
246 117 -415 23 17
-46 107 -392 65 19
139 10 390 120 20
186 26 91 94 22
-105 -19 -200 -35 23
-16 48 -434 -89 25
141 -24 -67 -64 26
-64 24 -3 20 28
-73 -6 13 21 30
203 24 461 125 32
-67 -21 404 -61 34
-195 -46 217 -43 36
-16 -12 -310 -108 38
-21 -5 -791 -59 40
-172 -38 -276 -54 42
-8 -58 280 83 44
104 -15 285 77 46
-123 15 -57 -29 49
-56 54 -624 -142 51
196 24 -540 -158 53
-9 29 -45 -83 55
-87 -28 1 133 57
164 103 795 257 59
16 102 661 176 61
-168 73 564 170 64
293 116 -407 -128 66
53 1 -838 -196 68
-174 31 -247 -39 70
-107 -45 771 256 72
125 46 867 329 75
-105 2 -195 -148 77
-55 -57 -824 -340 79
92 -195 -109 -16 81
7 128 409 223 83
-191 -14 -17 15 85
241 64 -527 -238 87
116 -5 -198 -56 88
-272 -107 129 -34 90
69 6 117 84 92
161 -1 -163 -97 94
-86 73 -127 -21 95
190 163 21 114 97
266 122 -11 33 99
-1 -47 -80 -51 100
-380 -338 -385 -461 101
89 -96 -14 -5 103
3 45 -39 10 104
-84 9 41 -32 105
179 139 109 113 106
46 54 42 96 107
-242 -89 -41 63 108
30 -6 -81 53 109
126 41 21 37 110
-149 41 28 75 111
-58 -78 -137 -33 111
107 -47 -27 -45 111
-48 96 107 146 112
-16 81 102 112 112
223 29 33 16 111
-36 -59 -22 -56 111
-181 19 22 -1 111
41 -7 -44 -30 111
81 59 16 27 110
-233 -26 4 -36 109
65 61 195 106 109
204 92 157 78 108
-42 92 101 93 107
-89 9 -48 18 105
192 -35 -17 -9 104
-124 -41 -13 -30 103
-200 -39 -24 -27 101
167 15 21 26 100
69 30 -3 16 98
-145 11 -15 11 97
59 -90 -160 -109 95
22 -114 -419 -175 93
-165 19 -211 0 91
59 99 192 135 89
346 169 330 162 87
-82 -29 147 15 85
-143 -131 17 -69 83
74 -98 47 -40 80
-61 11 154 12 78
-141 -32 -2 -32 76
154 10 -76 3 73
57 -35 -115 -13 71
-252 -82 -253 -141 69
136 56 -67 1 66
177 33 -275 -60 64
-159 -25 -339 -84 62
8 5 -47 -48 60
175 13 213 29 57
-107 -4 412 113 55
-116 -4 118 38 53
208 -5 -45 32 50
31 49 51 40 48
-145 18 102 8 46
180 27 -15 -9 44
126 20 -91 -24 42
-169 10 -82 -19 40
100 10 -113 -17 38
226 23 -364 -57 36
-95 13 -294 -83 34
-30 24 63 52 32
141 17 469 94 30
-97 63 427 121 28
-88 42 179 53 27
252 88 -22 32 25
79 57 -253 -31 24
-113 19 -376 -48 22
183 34 -131 32 21
107 8 288 94 20
-273 15 416 85 19
-60 16 86 -10 18
9 -9 -222 -80 18
-345 -33 -310 -55 17
-130 -23 -339 -36 17
260 16 -170 24 16
-29 1 -52 -27 16
-81 13 487 78 16
178 3 550 49 16
-9 20 133 41 16
-138 68 -228 -4 16
117 37 -261 -36 16
95 -39 45 65 17
-224 -30 -295 -25 17
-29 4 -285 -53 17
245 33 -254 23 18
-94 71 165 -3 19
-15 -7 247 70 20
257 80 -263 -19 20
-46 -2 -70 20 21
-145 -13 399 87 22
144 -37 505 88 23
-20 46 514 140 24
-92 37 254 33 26
104 -31 297 73 27
169 47 -340 -57 29
-77 52 -749 -83 30
16 -10 -105 -30 32
238 -3 599 106 34
19 25 255 -37 36
65 111 61 24 38
269 7 -678 -136 40
-22 -129 -352 -71 42
-215 -67 -201 -4 44
-66 -49 184 -21 47
-163 -27 169 -117 49
-278 -3 69 -4 51
-92 -45 -277 -40 53
25 1 78 15 56
-157 -9 -115 16 58
-2 40 45 -106 60
282 8 -77 -18 62
-75 -35 27 -60 65
149 215 101 199 67
160 99 30 25 69
220 88 -91 65 71
71 -38 -142 -92 73
200 83 339 206 75
95 97 491 236 78
-200 82 83 50 80
-237 -15 -386 -154 81
-203 -28 -326 -124 83
-347 -20 -105 -39 85
-191 -29 97 53 87
120 14 -65 -34 89
-106 -9 -209 -134 91
-149 -64 -102 -48 92
139 -44 -17 17 94
58 -13 -7 14 95
-117 -22 -55 -43 97
188 31 -129 -51 98
197 25 -109 -37 99
-61 -35 -53 -33 101
143 99 -1 41 102
260 35 5 8 103
-63 38 -29 -14 104
-59 -19 -55 -93 105
160 -40 -42 -54 106
53 63 121 143 107
-109 72 13 8 108
180 49 32 21 109
130 101 113 61 109
-223 -79 -23 -22 110
64 13 24 47 111
189 102 108 237 111
-276 -91 -133 -77 112
82 77 79 130 112
199 56 31 45 112
-48 70 95 92 112
-129 -50 -43 -33 112
171 3 23 3 112
-79 17 -7 -39 112
-203 -10 -17 -44 111
27 -77 -74 -89 111
-33 -89 -53 -76 110
-339 -84 -72 -74 110
-102 -75 -94 -81 109
171 -14 -100 -41 108
-250 1 21 7 107
-122 -4 31 3 106
247 3 90 48 105
-180 -18 -15 -14 104
-172 -31 -51 -20 103
232 47 32 58 101
-8 5 -41 -9 100
-194 19 -170 -75 98
200 44 52 58 97
115 11 150 107 95
-93 35 174 121 93
77 11 -5 15 91
233 25 -80 -24 89
-101 14 -33 -16 87
26 42 -171 -10 85
254 -2 -53 3 83
-47 4 121 66 81
-120 -2 74 11 78
194 32 23 5 76
-44 19 -166 -93 74
-114 16 47 28 71
169 43 354 136 69
203 1 61 37 66
-159 7 -78 7 63
41 6 -11 22 61
200 26 110 25 58
-115 13 95 12 56
-43 -15 -70 -55 53
181 -20 -133 -74 51
-168 -76 -135 -99 48
-202 -10 -162 -65 46
236 21 -217 -33 43
94 65 -161 22 41
-207 21 2 29 39
151 25 -33 21 36
150 -4 -216 -106 34
-166 1 -402 -128 32
43 -25 -3 -16 30
111 28 480 69 28
-99 78 870 291 26
-13 140 518 192 24
273 117 -2 91 22
67 56 -279 17 21
-109 -4 -79 -10 20
16 -65 -129 -89 19
-49 -2 -53 -37 18
-329 11 -93 -22 17
-64 35 31 23 17
70 -7 -92 -39 16
-170 -40 -526 -128 16
-49 -39 -401 -108 16
162 -29 -178 11 16
-73 0 269 69 16
-63 5 133 50 17
208 16 94 46 17
-6 20 15 -14 17
-159 38 -39 107 17
141 -31 205 -25 18
79 -23 112 -39 19
-181 -32 66 -39 20
15 13 231 -5 21
130 -14 228 93 22
-115 78 363 55 23
30 14 91 71 24
245 79 111 127 25
-24 17 -346 24 26
-45 78 -489 -40 28
161 31 -447 -10 29
127 57 331 -31 31
-128 21 769 131 33
206 122 605 74 35
170 82 186 101 37
-139 58 -36 51 39
73 -18 -756 -122 41
203 -64 -471 -101 43
27 -109 -409 -171 45
-134 -82 512 45 47
82 -63 -234 -52 50
-236 -9 1 -60 52
-376 -55 -132 -62 54
85 15 482 75 57
34 29 -381 -117 59
-155 90 -477 -29 61
48 67 -233 -21 63
132 30 748 227 66
-135 3 666 121 68
-20 -9 -367 -44 70
163 -34 -825 -197 72
-141 -22 -232 -13 74
170 -72 703 200 76
11 6 1032 154 79
-99 15 -198 -121 81
-324 17 -718 -260 83
-142 -78 -347 -136 85
89 83 603 219 87
-57 20 360 107 89
71 117 -192 -39 91
238 123 -343 -33 93
-56 52 -125 25 95
9 -16 -47 -23 97
107 -108 -184 -61 99
16 -120 -79 4 101
122 209 185 205 102
344 203 77 124 104
-9 -43 -200 -130 105
-74 -57 -152 -105 107
1 -206 -173 -139 108
51 -69 -95 -58 109
-101 -11 -57 -15 110
47 -27 -37 -49 112
89 -52 -45 -83 113
-41 61 138 83 114
-137 -84 -118 -176 115
322 198 194 211 116
145 230 220 352 117
-103 39 15 43 118
275 111 137 102 119
84 87 116 35 119
-135 99 70 106 120
475 351 353 459 120
141 68 69 137 121
-252 -63 -56 -33 121
-163 -237 -231 -242 121
-93 -276 -268 -271 121
-295 -150 -157 -159 121
-8 -16 8 -21 120
101 -59 -64 -59 120
-111 16 58 23 120
-232 -9 -9 -11 119
-11 27 46 16 119
-150 45 83 58 118
-433 -79 -45 -71 117
-109 -61 -43 -55 116
-67 -59 -140 -89 115
-289 -33 -77 -55 114
70 -32 1 -6 113
201 -11 20 4 111
-26 -15 -9 -2 110
-48 -44 -169 -83 109
219 -17 -56 11 107
68 -1 98 46 106
-59 8 -7 -11 104
192 -6 -149 -69 102
160 25 4 38 100
-169 20 136 77 98
98 25 280 114 96
263 21 43 13 94
-145 11 -81 -41 92
-25 6 -22 9 90
255 55 -203 -15 87
-60 -1 -416 -154 85
-59 57 -38 43 82
261 63 399 148 80
1 48 572 210 77
-141 17 176 81 75
257 127 -109 34 72
206 128 -119 79 70
-39 169 134 143 67
84 -40 207 81 65
158 -43 107 1 62
-224 -85 -105 -85 60
-109 -44 -107 -71 58
141 -57 -159 -95 56
-113 -30 -289 -109 53
-161 -2 -383 -102 51
150 -26 -74 -43 49
6 -20 73 -30 47
-163 16 210 9 45
178 95 234 86 43
239 125 190 114 41
-21 131 232 134 39
158 95 80 59 37
237 41 -77 23 35
-126 27 -152 1 33
-176 -61 -74 -64 32
90 -33 -47 -48 30
-110 9 -137 -42 29
-213 -24 -275 -80 27
110 -49 -301 -72 26
64 -74 32 -37 25
-180 -14 290 28 23
200 -2 185 -9 22
195 -9 -80 -13 22
-75 27 -312 -16 21
-32 38 -119 36 20
21 3 25 71 20
-260 11 190 100 19
-256 18 248 82 19
31 33 36 -1 19
-34 31 -122 -33 18
-117 11 -225 -86 18
155 14 -37 43 18
161 37 -104 73 19
-19 12 214 140 19
101 -11 403 90 19
127 -11 368 -8 19
-171 1 -80 -67 20
-38 2 -543 -51 21
99 4 -182 -24 21
-57 -9 480 103 22
-75 -3 427 -58 23
185 25 -136 -24 24
33 33 -448 -42 25
-153 7 -444 -67 27
207 75 -213 64 28
122 79 149 82 29
-16 152 313 160 31
80 -72 486 41 32
194 0 368 21 34
-12 0 225 37 36
151 219 -313 117 37
275 192 -535 22 39
26 16 -178 5 41
-188 -152 1045 145 43
68 -15 969 127 45
-115 13 -8 -189 47
-338 -34 -811 -332 49
-41 -80 -831 -189 52
21 -145 -660 -144 54
-182 -23 -65 71 56
-55 23 607 146 58
49 24 627 171 60
-134 73 -490 -57 62
-3 54 -769 -225 64
308 98 -321 -55 67
119 31 711 297 69
-209 -65 69 -21 71
142 -37 -148 -60 73
58 50 104 1 75
-353 63 155 117 77
-15 -26 282 163 79
-65 72 250 88 81
-250 -35 167 -26 83
54 64 112 -10 85
242 -21 -246 -104 87
-26 8 -205 -27 88
-33 54 -83 -19 90
252 64 -184 -47 92
40 30 -404 -164 94
-169 -68 -351 -168 95
147 -31 -68 -31 97
62 -49 150 114 99
-111 36 165 126 100
89 -7 5 6 101
167 -2 -122 -78 103
-174 11 -119 -105 104
26 12 24 13 105
159 7 -36 4 106
-89 -12 -101 -93 107
-63 -21 -25 -20 109
180 -35 -1 -98 110
11 -33 15 -103 111
-58 54 129 159 111
58 -24 -98 -56 112
170 143 128 189 113
-58 84 101 180 114
61 75 -11 112 114
194 119 79 252 115
-146 13 -66 8 115
53 115 101 74 115
136 -22 37 17 115
-94 -1 1 -27 115
-197 -79 -67 -107 115
90 -45 12 -30 114
-91 -76 -31 -67 114
-183 0 -7 -39 114
24 -35 -55 -41 113
19 -10 -121 -54 112
-259 -50 33 9 111
-47 -38 75 28 110
95 15 120 49 109
-227 -30 -54 -53 108
-159 -10 -80 -51 107
138 10 3 14 105
-16 25 -86 -41 104
-158 -84 -78 -52 102
208 -7 23 19 101
11 -7 79 49 99
-164 -17 14 14 97
146 12 -81 -35 95
171 12 -33 20 93
-157 30 -113 -6 91
86 14 -167 -34 89
281 46 -31 11 87
-76 12 141 63 84
-55 8 239 39 82
191 -10 33 -11 79
-16 7 69 70 77
-100 40 67 37 74
189 3 74 49 72
93 33 -12 9 69
-120 -7 -69 -22 67
61 15 -62 -5 64
194 -43 49 8 62
-211 -45 -132 -73 59
-47 -19 -192 -61 57
265 78 -112 14 54
-103 10 100 0 52
-111 -5 242 -1 49
238 19 101 9 47
-17 35 -210 -36 45
-95 47 -223 9 42
192 -23 -145 -3 40
112 15 73 27 38
-169 35 110 2 36
119 53 16 20 34
117 40 -76 -7 31
-265 41 90 24 29
-101 -15 152 47 28
266 45 231 38 26
6 50 43 -5 24
-7 24 91 51 23
234 13 109 27 22
17 22 61 81 20
-216 41 -229 29 19
4 12 -333 -15 19
5 40 -388 -5 18
-289 19 -185 20 17
-1 41 -67 81 17
158 19 192 -65 16
-171 -19 124 -1 16
-64 36 262 -60 16
163 -21 -97 -21 16
-108 4 -408 23 16
-202 -67 70 31 16
74 -27 398 96 16
67 5 441 15 17
-151 21 272 3 17
80 -48 -188 -128 17
115 -27 -419 -66 18
-178 55 -486 -91 19
57 87 -124 28 20
223 11 501 175 21
-23 -8 719 163 22
-58 17 -42 61 23
235 53 -453 -96 24
-8 27 -347 -58 25
-102 -82 149 -25 27
243 68 352 171 28
140 107 -226 -4 30
-100 104 -165 72 31
188 16 226 80 33
211 -4 395 -12 35
-157 15 -232 -27 37
-58 -46 -324 -102 39
-26 -58 -168 -34 41
-222 -87 287 5 43
-177 8 -93 -48 45
118 114 -211 14 47
-33 24 -485 -42 50
-195 -74 78 33 52
114 -163 648 115 54
73 -35 -8 -95 57
-110 101 91 -163 59
66 154 5 32 62
203 106 401 192 64
-113 78 417 100 67
211 52 -458 -113 69
97 38 -483 -23 71
-145 -36 118 102 74
-205 16 283 133 76
58 -23 -453 -189 79
47 66 -378 -85 81
-125 -17 64 -78 83
173 58 309 80 85
80 13 218 30 88
-207 -100 -493 -180 90
136 -56 -465 -112 92
167 87 158 144 94
-91 10 320 119 95
17 9 137 67 97
273 39 -167 -74 99
-36 15 -187 -84 101
-139 -71 -81 -53 102
221 -50 -103 -78 104
18 -46 -122 -161 105
-74 125 49 -88 107
137 -44 52 -112 108
245 213 158 195 109
-195 -37 -81 145 110
35 44 -23 192 111
227 120 63 191 112
-102 146 127 219 113
-49 119 29 118 114
192 -62 -78 -9 114
-70 -11 34 -13 115
-161 69 79 10 115
179 3 27 -9 115
59 -53 -8 -49 115
-245 -35 -6 -56 114
-34 -62 -65 -78 114
47 -58 -38 -55 114
-317 -88 -84 -103 113
-126 -18 4 -19 112
64 -24 -14 -27 112
-168 -19 -24 -17 111
-153 4 -1 3 110
168 22 17 35 108
-32 15 8 16 107
-283 -30 -23 -23 106
190 -19 -22 -2 104
21 3 -28 9 103
-144 -11 -23 13 101
43 -26 5 -1 99
187 -13 -100 -86 98
-150 -11 -11 -3 96
40 33 133 68 94
299 38 261 162 92
-29 33 186 89 90
-55 9 -45 11 88
229 1 -182 -49 85
-20 -64 -439 -149 83
-133 21 -44 -11 81
141 22 208 43 78
193 105 407 134 76
-121 65 193 44 74
39 22 -124 -11 71
175 30 -206 -52 69
-144 -5 -71 2 66
43 -5 72 38 64
240 -4 72 64 62
-28 -10 -62 21 59
-187 -28 -147 -45 57
129 -11 -80 -43 54
-1 -7 -81 -75 52
-157 15 -19 -8 50
148 39 47 14 47
66 -42 -55 -69 45
-184 4 10 -24 43
36 15 35 5 40
230 67 184 67 38
-148 -3 107 17 36
-89 -27 -30 -45 34
205 29 -40 21 32
8 51 -4 20 30
-101 31 -159 3 28
201 43 -230 -13 26
43 45 -181 19 24
-66 129 130 129 22
165 91 100 52 21
266 64 109 57 20
-117 -14 112 49 18
20 -16 167 24 17
206 5 -41 -33 16
-157 -17 -64 13 15
-228 -14 95 24 14
11 -27 219 31 14
-185 -1 -23 -38 13
-306 2 -375 -72 13
16 -16 -291 -54 13
28 -5 170 21 13
-202 11 458 120 13
80 41 37 49 13
128 17 -347 3 13
-123 17 -242 -14 14
-8 2 69 -1 14
207 -19 89 -16 15
-21 9 9 -41 15
-54 36 -102 -35 16
199 7 -29 3 17
74 46 274 93 18
-75 10 247 114 19
135 39 39 -3 20
131 17 -422 -105 21
-134 5 -293 -68 22
-35 -7 65 -10 23
117 -61 340 91 24
-94 1 195 81 26
-47 10 120 -52 27
213 -24 -65 13 28
-53 -9 78 -1 30
-79 25 156 -7 31
190 74 362 95 33
64 47 -41 1 35
-92 5 -411 -36 37
109 21 -389 -36 38
214 10 -128 16 40
175 28 -103 5 42
2 -6 -63 -55 44
33 -2 -33 21 46
-394 -65 314 -41 48
-300 -8 -26 -32 50
51 32 -448 -207 53
-117 33 -88 46 55
-117 -31 613 146 57
61 12 967 297 59
100 48 200 -1 61
-71 9 -658 -193 62
151 43 -614 -169 65
120 20 -288 26 66
-244 -37 426 128 68
83 -21 278 67 70
187 126 -39 24 72
-139 53 -230 -44 74
-110 51 -65 31 76
3 -74 135 -16 78
-56 73 275 111 79
-129 37 10 61 81
144 31 -229 -48 83
87 -1 -341 -123 84
-171 -60 -313 -139 86
67 -75 -223 -103 87
101 -98 31 -38 89
-150 -11 125 37 90
-5 104 108 91 91
298 116 96 43 93
-1 15 -19 23 94
-117 -55 -73 -45 95
128 -1 -103 -64 96
3 2 -55 -29 97
-141 42 -28 0 98
116 11 -14 5 99
66 -57 -73 -61 99
-169 -47 -16 -56 100
-21 -37 -14 -88 101
267 114 130 83 102
-60 69 48 66 102
-27 55 43 88 103
173 11 -30 14 103
-133 -83 -107 -139 104
-119 14 17 33 104
183 65 78 164 104
107 97 97 157 105
-34 174 165 209 105
117 26 38 25 105
99 34 22 28 105
-177 4 -24 -36 105
43 13 -7 -16 104
104 -53 -97 -64 104
-145 34 27 -3 104
-113 -29 14 -51 103
143 -1 34 -24 103
-56 -3 28 3 102
-146 6 -27 13 101
100 -15 -77 -27 100
32 25 70 63 99
-204 -24 9 -7 98
41 -24 7 -14 97
91 -31 -27 -23 96
-238 -36 -65 -36 95
-80 -19 -42 -26 93
192 12 9 12 92
-119 -9 -79 -40 90
-51 29 -3 26 89
206 30 64 64 87
20 36 -107 43 85
-157 27 30 58 83
157 -23 -117 -11 81
128 3 -41 -55 79
-234 -25 147 18 77
146 -39 196 21 75
215 2 199 55 73
-174 -55 -189 -69 70
-33 29 -95 -1 68
142 -22 -16 -35 66
-67 -36 196 20 63
-56 123 5 14 61
217 72 -197 3 59
32 96 -78 34 56
-144 -17 37 13 54
150 24 3 21 51
65 0 -108 -32 49
-213 -27 -158 -80 46
23 -37 -43 -59 44
241 34 186 79 41
-52 32 147 65 39
46 18 131 58 37
233 35 98 39 35
-37 47 70 13 32
-34 41 -11 -1 30
211 -6 -220 -66 28
-41 -9 -384 -56 26
-279 -25 -168 -2 24
71 -4 75 20 23
93 31 102 43 21
-19 90 139 59 19
171 67 -144 31 18
272 85 -256 -54 17
-103 42 -212 -19 15
-144 -24 82 9 14
12 9 405 168 14
-161 52 201 82 13
-190 11 226 55 12
109 -24 142 25 12
31 -39 387 34 12
-178 -70 -75 -89 12
81 34 -363 -51 12
137 33 -415 -52 12
-162 27 -68 13 13
-27 33 3 30 13
111 1 -70 -20 14
-92 -8 -322 -33 14
-144 -15 12 77 15
252 61 75 68 16
-49 124 93 38 17
-36 85 -29 -7 18
154 -27 436 78 19
84 -19 418 34 20
-118 17 57 -39 21
87 29 -183 -66 23
130 -29 59 94 24
-111 -35 100 73 25
-101 11 -72 -17 27
241 2 -24 -33 28
-35 -2 -67 -33 30
-66 -36 -52 -39 32
219 12 -305 -70 33
131 72 -387 -1 35
-39 37 -203 55 37
143 -10 361 96 39
-56 -58 491 87 41
-461 -31 213 -121 43
-93 18 -293 -140 45
80 -5 -380 -33 47
-140 -17 203 -35 49
-93 -52 377 65 51
89 -6 289 -36 53
-35 50 -118 6 56
-33 58 -133 10 58
264 96 -247 73 60
107 73 -486 -118 62
-136 15 -364 -8 64
121 91 -17 111 66
278 32 96 41 68
-292 -45 169 -4 70
-91 -79 166 -8 73
0 -71 459 24 74
-188 84 498 122 76
-68 57 63 3 78
267 58 -289 -52 80
-29 -56 -114 7 82
-51 37 -155 -23 84
277 53 -427 -152 86
147 -11 -382 -102 88
-88 22 148 124 89
103 85 111 99 91
151 69 236 113 93
-172 -4 27 -41 94
36 31 101 44 96
76 -81 162 1 97
-88 66 -67 -53 99
-130 -71 -287 -141 100
178 -24 -175 -49 101
-37 -41 -150 -74 102
-205 -152 -222 -158 104
115 -50 -120 -57 105
35 -16 -85 -83 106
-98 68 27 33 107
111 -9 49 68 108
26 -99 -81 -104 109
-155 -23 -35 -95 110
18 126 74 37 110
225 116 74 76 111
15 120 129 214 112
18 107 135 177 112
157 66 85 143 112
37 136 81 147 113
-121 14 -13 -1 113
-73 -157 -181 -191 113
46 -5 7 5 113
-214 -47 -110 -51 113
12 -36 -13 -13 113
142 -11 75 -4 112
-208 -63 23 -40 112
-2 63 25 51 112
166 14 -129 -37 111
-168 -18 34 -7 110
-203 -31 89 -1 110
108 -27 101 -4 109
-33 -26 -41 -34 108
-227 -53 -113 -65 107
95 -1 -77 -22 106
90 7 -131 -35 104
-179 -1 7 17 103
-32 -5 95 20 102
211 29 64 45 100
-104 24 -151 -19 99
-35 10 -82 16 97
234 27 49 53 96
-3 12 112 72 94
-114 20 -18 -14 92
261 28 99 47 90
114 35 177 57 88
-210 12 74 31 86
139 11 -110 -27 85
186 -2 -125 -11 83
-131 23 56 41 80
6 18 75 51 78
193 24 -70 2 76
-183 -38 -156 -39 74
-69 27 41 27 71
200 7 25 -5 69
29 16 -144 -49 67
-187 -36 -118 -61 65
187 -7 114 33 62
40 -8 49 6 60
-198 3 -179 -28 58
81 -1 -119 -85 56
89 -4 209 1 53
-224 -73 302 -7 51
-38 -5 164 67 49
221 5 -85 37 47
-125 18 -43 15 45
-126 31 -76 -18 43
227 11 -127 -29 41
46 15 -161 -21 39
-177 -35 -285 -79 38
106 -6 -345 -89 36
90 85 -23 41 34
-134 92 316 109 33
102 35 326 94 32
224 24 214 25 30
-165 25 -33 1 29
-97 -9 -179 -29 28
211 9 56 47 27
-27 19 21 -31 26
-101 19 -71 -51 25
256 18 -99 -38 24
-21 8 -165 13 24
-132 28 36 91 23
176 124 197 128 23
148 18 177 109 22
-161 26 323 59 22
-56 4 113 31 22
121 23 -42 -46 22
-137 42 -249 -12 22
-55 66 -195 -56 22
153 -14 64 28 22
-32 22 57 20 23
-161 27 -354 -17 23
93 33 -360 19 24
-11 -8 21 23 24
-212 -53 473 44 25
58 27 192 2 25
200 43 -104 -62 26
-101 26 130 79 27
106 54 421 91 28
232 67 165 131 29
-138 37 -677 -88 30
-17 -28 -351 16 31
139 -142 333 1 32
28 28 1028 185 33
-145 51 331 -43 35
161 123 -344 -125 36
44 50 -373 -85 38
-191 -63 -69 -31 39
18 -29 -444 -100 41
78 -23 -933 -146 43
-158 -54 -309 -11 44
-83 -91 784 212 46
128 3 980 74 48
-173 21 245 -89 50
-101 37 -383 -176 51
87 -43 -337 -11 53
-38 -58 -185 -8 55
-111 -29 -567 -127 57
92 12 -838 -250 59
173 127 134 181 61
-98 99 1073 340 62
76 154 277 131 64
161 72 -687 -138 66
-84 13 -361 10 68
-48 -58 774 223 70
67 -87 1403 257 71
-163 -20 297 -146 73
-252 -15 -738 -265 75
86 -2 -365 -83 77
60 7 23 74 79
-93 9 -798 -213 80
140 -2 -929 -231 82
114 -62 -58 2 84
-76 -21 589 130 85
80 86 749 297 87
232 68 53 40 88
-64 61 -61 10 90
11 19 33 39 91
171 8 -297 -87 93
-79 57 -232 -5 94
-111 33 195 70 96
141 46 429 136 97
-4 -2 88 -19 98
-121 -18 -152 -56 99
86 8 -451 -105 101
168 41 -308 -55 102
-149 -54 17 1 103
-5 -31 385 40 104
212 4 363 89 105
-150 -33 -47 -68 106
-136 -59 -324 -145 107
217 67 -60 -9 108
-7 11 -32 33 109
-237 -100 -222 -129 109
249 159 69 37 110
12 2 -51 45 111
-122 126 92 151 111
171 145 133 297 112
117 -22 -27 13 112
-179 24 -55 19 112
-7 60 -65 40 112
167 23 -52 5 112
-160 -76 -80 -83 112
-205 -68 176 -18 112
98 -78 110 -102 112
-5 -5 132 -10 112
-186 -26 -37 -55 112
26 -34 -109 -43 112
121 32 13 44 111
-211 8 -21 -2 111
50 27 7 17 110
126 19 -56 20 109
-246 50 56 74 108
-133 28 59 18 107
153 -9 34 -15 106
-103 6 -31 11 105
-112 -14 -199 -34 104
193 14 7 40 103
13 -7 57 -29 102
-115 6 15 -22 100
132 4 -113 -55 99
186 65 116 118 98
-193 11 120 33 96
64 6 -27 -14 94
231 21 -15 18 93
-64 11 85 52 91
0 44 182 77 89
305 28 50 41 88
-21 2 -186 -50 86
-126 -2 -150 -35 84
209 20 -116 -6 82
78 59 -83 2 80
-192 18 -120 16 78
104 -22 39 21 76
182 11 168 47 74
-240 -27 231 -3 72
29 -11 131 16 70
255 31 49 39 68
-149 13 -51 -8 66
-133 34 -207 -65 63
259 11 -106 -23 61
-38 42 25 25 59
-117 38 88 78 57
184 -25 -68 -7 55
-19 -51 -199 -98 53
-273 -27 116 -4 51
108 -3 278 29 48
191 15 45 19 46
-148 19 -505 -68 44
31 45 -285 9 42
273 76 190 119 40
7 128 541 191 38
-18 60 437 119 36
198 -2 -84 -55 34
10 -2 -283 -61 33
-157 64 -91 -17 31
178 4 134 31 29
58 -25 40 -37 28
-342 -84 -327 -142 26
-114 -57 -440 -84 25
85 -14 -220 -33 24
-102 63 237 101 23
18 51 259 82 22
327 84 145 77 21
-3 23 28 38 20
-31 28 -141 9 19
169 23 -266 -25 18
-7 32 -266 -5 18
-281 -53 227 42 17
-72 -76 575 19 17
-34 -34 640 66 17
-235 -3 197 32 17
38 75 -251 23 17
223 64 -568 -17 17
-63 51 -565 -31 17
-25 18 -336 -65 18
103 -45 291 88 18
-135 -64 233 15 18
-149 -11 36 21 19
183 36 -364 -17 20
121 95 -83 40 21
-76 88 236 54 21
172 51 559 100 22
152 53 337 128 23
-101 -3 220 65 25
48 17 -127 72 26
164 18 -749 -136 27
-88 -36 -232 -38 28
16 -81 757 149 30
207 11 1159 154 31
60 138 185 12 33
-96 97 -364 -101 34
36 -56 -211 -23 36
26 -32 -333 -71 38
-222 -12 -885 -192 40
-19 26 -600 -101 42
126 -15 655 161 44
-205 -52 682 19 46
-154 -38 -65 -129 48
65 -30 -330 -137 50
-215 -104 60 95 52
-154 -45 -295 -57 54
172 -35 -574 -217 56
63 55 -390 -24 58
-121 10 258 134 60
159 82 255 98 62
192 132 237 46 64
-133 66 379 107 66
155 45 618 222 68
178 -25 -344 -48 70
-121 31 -1020 -283 71
254 -5 -248 -64 73
75 6 424 105 75
-141 22 365 120 77
-256 62 -129 -109 79
22 70 254 197 81
-21 -24 603 160 82
-142 -43 335 64 84
105 -61 -491 -229 86
72 -20 -595 -231 87
-127 -70 -276 -98 89
48 -8 -200 -52 91
183 37 -334 -73 92
-103 83 17 129 94
-34 43 365 167 95
221 30 295 130 97
-61 4 95 -12 98
-112 -56 -165 -84 99
175 30 -197 -99 100
-7 -65 -117 -107 101
-163 -26 -141 -70 103
157 47 -63 -39 104
159 15 -27 -15 105
-218 -164 -129 -105 106
95 100 66 18 106
208 10 11 -93 107
-189 43 -4 -46 108
43 125 83 204 109
282 131 104 272 109
31 184 91 217 110
-110 40 8 29 110
117 -47 -18 -23 110
16 11 8 10 110
-244 -52 -54 -69 111
32 -58 -33 -62 110
95 -40 2 -34 110
-211 -27 -3 -46 110
-53 -13 -119 -61 110
168 2 -93 -26 110
-193 -40 21 1 109
-161 1 177 24 109
141 23 173 56 108
-44 1 -14 -9 107
-213 -39 -133 -48 106
52 -23 -7 3 105
1 2 19 9 104
-278 -3 3 0 103
22 -23 -33 -23 102
187 -10 -42 -18 101
-112 19 -43 9 99
-2 0 -193 -33 98
235 11 -93 7 96
-107 -13 -88 -5 95
-100 24 -66 -5 93
239 29 271 115 91
15 24 304 110 89
-127 27 331 112 88
193 -11 -10 -38 86
166 16 -171 -63 84
-155 31 -19 27 82
98 19 52 51 80
230 33 -41 25 78
-106 15 -159 -35 76
-29 23 -65 -27 74
163 3 -80 -16 71
-47 13 -207 -37 69
-145 -3 -104 -16 67
197 47 59 55 65
12 -19 170 -3 63
-216 -24 -109 -53 61
122 -7 -15 -7 59
154 38 167 71 56
-173 7 362 77 54
11 -33 138 -21 52
179 -28 -100 -83 50
-105 21 -75 -23 48
7 69 -7 29 46
294 51 -77 23 44
26 53 -45 49 42
-88 47 -33 26 40
138 19 -104 -11 38
27 8 -123 -23 36
-272 -10 -283 -65 35
25 -7 -253 -32 33
168 18 -102 16 31
-99 7 361 86 29
125 86 555 156 28
297 56 358 67 26
-59 67 55 23 25
-247 23 -53 4 23
-55 -6 -133 -37 22
-295 -23 -331 -68 21
-229 64 -252 29 19
264 121 157 169 18
277 173 418 175 17
29 123 149 92 16
65 -39 -181 -104 15
82 -96 -148 -96 14
-230 -90 54 -28 13
-78 -57 116 -45 13
131 -51 -294 -83 12
-127 -62 -642 -179 12
-185 -77 -469 -80 11
99 -62 3 33 11
-3 -32 591 78 11
-143 -3 443 -9 11
138 -3 -224 -155 11
97 -6 -795 -189 11
-167 -8 -408 20 11
-3 -25 277 119 11
92 -10 537 141 11
-118 37 424 5 11
-17 44 -62 -35 11
215 58 -43 19 12
30 51 -112 47 12
-106 43 -103 -35 13
196 9 336 131 14
91 50 501 278 15
-41 89 504 196 16
158 98 -37 47 17
143 44 -257 -97 18
-148 -23 -733 -181 19
-7 -20 -461 -70 21
121 54 80 77 22
-152 -9 691 143 24
-74 -3 773 72 25
215 -4 275 -42 27
-81 36 -387 -125 28
-125 25 -563 -149 30
177 -33 -173 24 32
130 -37 22 77 33
-71 58 9 65 35
233 105 -277 4 37
444 84 -632 12 39
-150 28 -404 22 41
0 3 374 167 43
-31 -12 1263 220 45
-444 -37 770 25 48
-274 -49 -600 -335 50
135 11 -1113 -250 52
-33 98 169 150 54
-207 93 948 445 56
199 84 415 187 59
92 -31 -633 -239 61
-273 -127 -710 -353 63
-37 -96 389 75 65
182 4 716 254 68
-119 48 165 89 70
234 -51 -889 -332 72
235 37 -647 -226 74
-227 30 157 70 76
-269 69 503 216 78
65 -46 194 2 80
-19 -2 -221 -131 82
-154 -25 -315 -137 84
186 16 -111 -40 86
76 -34 -124 -59 88
-192 35 -127 -44 90
70 24 -63 -14 91
167 -37 -89 -48 93
-150 43 -21 16 94
-11 83 31 48 96
264 13 -5 -12 97
-133 -107 -99 -98 98
-145 -38 -51 -20 99
122 -76 -101 -205 101
84 15 39 -9 102
-146 6 4 3 103
138 55 37 62 104
257 157 162 229 105
-101 98 56 141 105
123 131 122 185 106
204 26 8 88 107
-160 -41 -43 -57 107
-50 10 77 12 107
214 96 77 66 108
-117 -56 -69 -99 108
-99 72 -20 15 108
142 38 29 52 108
76 67 62 91 107
-202 3 75 28 107
63 -42 3 -33 107
78 -32 -47 -49 106
-283 -41 -66 -62 106
-95 -43 -42 -53 105
46 -57 -70 -69 104
-241 -37 -60 -44 103
-207 -15 -15 12 102
92 -20 -23 -1 101
-124 -44 -20 -17 100
-179 -13 -87 -19 99
15 -24 -81 -41 97
165 25 58 24 96
-90 44 146 78 94
190 86 25 43 93
259 45 -148 4 91
-121 9 50 47 89
-49 -1 177 79 88
188 6 93 57 86
-47 -43 -161 -57 84
-107 -68 -233 -98 82
179 -39 45 -1 80
63 0 89 27 77
-41 57 -107 14 75
123 1 -109 -49 73
-22 -79 -29 -109 70
-245 -48 227 4 68
14 -61 13 -61 66
199 49 -106 8 63
-47 52 28 70 61
77 86 141 99 59
313 76 123 95 56
63 70 -1 27 54
5 115 3 57 52
209 50 37 60 49
57 32 10 6 47
-117 42 -50 2 45
119 6 -158 -93 43
93 8 -30 -17 40
-220 -7 91 40 38
-114 5 133 91 36
96 10 45 50 34
-61 3 -114 -26 32
40 62 -43 30 30
296 58 6 21 28
89 36 14 -5 26
-125 0 -81 12 24
-35 -46 -228 -47 23
-213 -34 -50 -18 21
-370 -2 133 -13 20
-89 -33 104 -67 19
60 6 -22 -17 17
-129 1 -141 -35 17
-32 11 70 49 16
125 -13 163 76 15
-69 -28 -17 -25 15
-57 -33 -500 -128 14
171 15 -536 -127 14
57 4 -69 -9 14
-115 -10 526 121 14
151 35 533 147 14
85 21 252 117 14
-37 82 -127 20 14
123 -1 -87 -17 14
220 52 -120 -15 14
-131 20 -128 -12 15
-16 42 -102 11 15
213 32 -72 -35 15
-47 -38 -202 21 16
-10 38 -543 -49 17
153 7 -346 -27 17
-15 -4 275 75 18
-200 -50 723 146 19
81 57 562 180 20
45 88 363 87 20
-157 -5 403 64 22
42 -51 556 -52 23
149 32 114 -12 24
-102 59 -1060 -198 25
-119 83 -1045 -159 27
208 0 -236 22 28
-75 -43 1015 279 30
-88 24 859 126 32
303 127 302 78 33
101 85 -114 13 35
-128 66 -128 43 37
110 -20 21 28 39
153 49 -204 -30 41
-168 23 -407 -93 43
45 11 -558 -136 45
191 -43 -360 -47 48
-119 -71 -147 -76 50
120 -15 18 99 52
219 44 -35 -2 54
-149 40 33 -6 56
-280 30 511 147 58
42 39 79 6 60
7 38 -219 -59 62
-207 -30 -250 -181 64
27 -73 197 -42 66
48 -91 -61 -75 68
-251 -62 -303 -75 70
-59 -80 293 86 71
164 13 624 108 73
-227 0 436 134 75
-127 69 -149 -70 77
234 -11 -158 -30 79
59 34 -83 -45 81
256 9 -313 -72 83
236 21 -383 -85 85
117 41 25 88 86
-362 -9 175 99 88
-192 24 24 31 89
-5 -6 -100 -41 91
-225 11 -157 -89 92
-100 -40 -123 -45 94
86 -77 -121 -105 95
-165 -63 -157 -120 97
-113 -71 -101 -81 98
229 21 -7 -102 99
114 55 132 130 100
-209 -117 -131 -227 101
199 -41 -5 -15 102
282 277 209 262 103
-147 72 13 167 104
186 160 124 298 104
216 18 -18 72 105
-89 101 118 109 105
-53 -1 2 19 106
226 -1 7 20 106
